# Matter power spectrum P(k) at redshift z=0
# for k=9.60881e-06 to 21.9587 h/Mpc,
# number of wavenumbers equal to 853
#    1:k (h/Mpc)              2:P (Mpc/h)^3        
       9.608806565107e-06       6.158146699356e+01 
       2.145156745703e-05       1.335748254595e+02 
       3.332954735221e-05       2.042782175291e+02 
       4.526975115419e-05       2.744214421182e+02 
       5.729956186539e-05       3.444079380786e+02 
       6.944694710181e-05       4.145323193485e+02 
       8.174067122832e-05       4.850410145490e+02 
       9.421051552855e-05       5.561567712243e+02 
       1.068875088434e-04       6.280909691733e+02 
       1.198041711362e-04       7.010508241930e+02 
       1.329947724596e-04       7.752441866059e+02 
       1.464956097987e-04       8.508830953437e+02 
       1.603453042204e-04       9.281866610529e+02 
       1.745851206528e-04       1.007383582441e+03 
       1.892593124115e-04       1.088714473504e+03 
       2.044154922346e-04       1.172434089942e+03 
       2.201050310352e-04       1.258813528850e+03 
       2.363834847410e-04       1.348142419950e+03 
       2.533110483824e-04       1.440731129965e+03 
       2.709530348823e-04       1.536912966150e+03 
       2.893803736693e-04       1.637046353058e+03 
       3.086701210935e-04       1.741516927872e+03 
       3.289059705157e-04       1.850739492520e+03 
       3.501787446709e-04       1.965159699709e+03 
       3.725868463269e-04       2.085255344476e+03 
       3.962366352877e-04       2.211537078741e+03 
       4.212426904911e-04       2.344548307990e+03 
       4.477279056125e-04       2.484864002446e+03 
       4.758233558858e-04       2.633088106236e+03 
       5.056678639574e-04       2.789849169713e+03 
       5.374071853343e-04       2.955793834720e+03 
       5.711927319294e-04       3.131577802375e+03 
       6.071797585811e-04       3.317854021173e+03 
       6.455249558241e-04       3.515257859387e+03 
       6.863834258880e-04       3.724389375067e+03 
       7.299050697801e-04       3.945793013689e+03 
       7.762304804195e-04       4.179935310628e+03 
       8.254865149471e-04       4.427181945857e+03 
       8.777817983007e-04       4.687775391386e+03 
       9.332024751379e-04       4.961815133011e+03 
       9.918085613878e-04       5.249242261485e+03 
       1.053631235555e-03       5.549830264064e+03 
       1.118671346315e-03       5.863183290579e+03 
       1.186899301353e-03       6.188742445544e+03 
       1.258256359613e-03       6.525799880677e+03 
       1.332657200755e-03       6.873519596452e+03 
       1.340840250952e-03       6.911533362266e+03 
       1.409993519211e-03       7.230962745624e+03 
       1.490138307530e-03       7.597115718378e+03 
       1.572950464739e-03       7.970918451714e+03 
       1.658279387686e-03       8.351291130571e+03 
       1.745969263858e-03       8.737158481235e+03 
       1.835862865565e-03       9.127470212061e+03 
       1.927804730282e-03       9.521217460717e+03 
       2.021643687598e-03       9.917445033220e+03 
       2.117234751992e-03       1.031526018038e+04 
       2.214440440455e-03       1.071383685664e+04 
       2.313131596169e-03       1.111241779468e+04 
       2.413187807521e-03       1.151031480244e+04 
       2.514497509855e-03       1.190690621654e+04 
       2.616957849248e-03       1.230163432832e+04 
       2.720474376409e-03       1.269400124082e+04 
       2.824960626633e-03       1.308356523904e+04 
       2.930337630105e-03       1.346993593961e+04 
       3.036533386399e-03       1.385276935633e+04 
       3.143482328220e-03       1.423176492447e+04 
       3.251124792182e-03       1.460666033597e+04 
       3.359406508800e-03       1.497722862510e+04 
       3.468278119440e-03       1.534327373698e+04 
       3.577694724771e-03       1.570462867464e+04 
       3.687615466840e-03       1.606115157198e+04 
       3.798003145249e-03       1.641272289656e+04 
       3.908823866730e-03       1.675924450934e+04 
       4.020046726690e-03       1.710063414103e+04 
       4.131643520835e-03       1.743682903776e+04 
       4.243588484725e-03       1.776777697556e+04 
       4.355858059030e-03       1.809344081906e+04 
       4.468430678260e-03       1.841379289768e+04 
       4.581286580801e-03       1.872881653262e+04 
       4.694407638220e-03       1.903850294558e+04 
       4.807777201933e-03       1.934285185864e+04 
       4.921379965466e-03       1.964186641364e+04 
       5.035201840715e-03       1.993556080597e+04 
       5.149229846737e-03       2.022395267821e+04 
       5.263452009761e-03       2.050706436141e+04 
       5.377857273226e-03       2.078492008168e+04 
       5.492435416790e-03       2.105755289976e+04 
       5.607176983354e-03       2.132499404871e+04 
       5.722073213252e-03       2.158727930868e+04 
       5.837115984859e-03       2.184445147647e+04 
       5.952297760926e-03       2.209654428590e+04 
       6.067611540054e-03       2.234360591987e+04 
       6.183050812766e-03       2.258567874901e+04 
       6.298609521706e-03       2.282280649248e+04 
       6.414282025528e-03       2.305503746835e+04 
       6.530063066118e-03       2.328241872655e+04 
       6.645947738794e-03       2.350499614889e+04 
       6.761931465189e-03       2.372282292087e+04 
       6.878009968562e-03       2.393593955184e+04 
       6.994179251274e-03       2.414440558023e+04 
       7.110435574241e-03       2.434826421725e+04 
       7.226775438162e-03       2.454756251333e+04 
       7.343195566339e-03       2.474236325476e+04 
       7.459692888970e-03       2.493270457176e+04 
       7.576264528736e-03       2.511864392023e+04 
       7.692907787600e-03       2.530022689892e+04 
       7.809620134675e-03       2.547750370992e+04 
       7.926399195086e-03       2.565052602028e+04 
       8.043242739716e-03       2.581934350340e+04 
       8.160148675780e-03       2.598400690722e+04 
       8.277115038132e-03       2.614456365512e+04 
       8.394139981253e-03       2.630106191747e+04 
       8.511221771859e-03       2.645354918749e+04 
       8.628358782070e-03       2.660207364796e+04 
       8.745549483106e-03       2.674668474100e+04 
       8.862792439445e-03       2.688742980297e+04 
       8.980086303427e-03       2.702434684543e+04 
       9.097429810247e-03       2.715748897750e+04 
       9.214821773323e-03       2.728690607365e+04 
       9.332261079998e-03       2.741264037681e+04 
       9.449746687547e-03       2.753473862907e+04 
       9.567277619478e-03       2.765324570375e+04 
       9.684852962090e-03       2.776819915315e+04 
       9.802471861276e-03       2.787964650872e+04 
       9.920133519552e-03       2.798763484786e+04 
       1.003783719329e-02       2.809220571961e+04 
       1.015558219016e-02       2.819340589645e+04 
       1.027336786669e-02       2.829126528282e+04 
       1.039119362611e-02       2.838582908175e+04 
       1.050905891620e-02       2.847715067754e+04 
       1.062696322741e-02       2.856525253672e+04 
       1.074490609101e-02       2.865019509960e+04 
       1.086288707745e-02       2.873199425620e+04 
       1.098090579479e-02       2.881071421734e+04 
       1.109896188722e-02       2.888637884009e+04 
       1.121705503369e-02       2.895902700953e+04 
       1.133518494670e-02       2.902870864113e+04 
       1.145335137105e-02       2.909546072246e+04 
       1.157155408280e-02       2.915931028035e+04 
       1.168979288821e-02       2.922030011484e+04 
       1.180806762280e-02       2.927846576707e+04 
       1.192637815048e-02       2.933384404070e+04 
       1.204472436269e-02       2.938647779512e+04 
       1.216310617768e-02       2.943639195643e+04 
       1.228152353978e-02       2.948362546115e+04 
       1.239997641876e-02       2.952821645125e+04 
       1.251846480920e-02       2.957018680018e+04 
       1.263698872995e-02       2.960959948163e+04 
       1.275554822362e-02       2.964646070601e+04 
       1.287414335609e-02       2.968081496826e+04 
       1.299277421609e-02       2.971269333203e+04 
       1.311144091480e-02       2.974213631054e+04 
       1.323014358550e-02       2.976916297495e+04 
       1.334888238321e-02       2.979381735732e+04 
       1.340840250952e-02       2.980528607302e+04 
       1.346765748445e-02       2.981611985320e+04 
       1.358646908692e-02       2.983612885439e+04 
       1.370531740931e-02       2.985384464296e+04 
       1.382420269108e-02       2.986931321601e+04 
       1.394312519227e-02       2.988257727861e+04 
       1.406208519336e-02       2.989364091112e+04 
       1.418108299514e-02       2.990255002271e+04 
       1.430011891861e-02       2.990933835617e+04 
       1.441919330488e-02       2.991402858565e+04 
       1.453830651516e-02       2.991664686411e+04 
       1.465745893064e-02       2.991724022007e+04 
       1.477665095257e-02       2.991582297593e+04 
       1.489588300219e-02       2.991241470791e+04 
       1.501515552078e-02       2.990707222208e+04 
       1.513446896973e-02       2.989978818190e+04 
       1.525382383055e-02       2.989062827504e+04 
       1.537322060500e-02       2.987959679654e+04 
       1.549265981514e-02       2.986671424703e+04 
       1.561214200349e-02       2.985203612549e+04 
       1.573166773313e-02       2.983557501957e+04 
       1.585123758789e-02       2.981735990947e+04 
       1.597085217246e-02       2.979740172990e+04 
       1.609051211262e-02       2.977573512367e+04 
       1.621021805544e-02       2.975240522708e+04 
       1.632997066945e-02       2.972741328424e+04 
       1.644977064494e-02       2.970081425320e+04 
       1.656961869415e-02       2.967260049150e+04 
       1.668951555156e-02       2.964282721607e+04 
       1.680946197418e-02       2.961150378156e+04 
       1.692945874185e-02       2.957863337588e+04 
       1.704950665752e-02       2.954426013167e+04 
       1.716960654760e-02       2.950844732469e+04 
       1.728975926234e-02       2.947117265059e+04 
       1.740996567612e-02       2.943248556795e+04 
       1.753022668790e-02       2.939232702281e+04 
       1.765054322158e-02       2.935085925355e+04 
       1.777091622640e-02       2.930803018508e+04 
       1.789134667742e-02       2.926384092455e+04 
       1.801183557591e-02       2.921834888545e+04 
       1.813238394985e-02       2.917158823615e+04 
       1.825299285442e-02       2.912354994005e+04 
       1.837366337244e-02       2.907425705201e+04 
       1.849439661498e-02       2.902378775541e+04 
       1.861519372184e-02       2.897209859419e+04 
       1.873605586209e-02       2.891923718953e+04 
       1.885698423471e-02       2.886519544301e+04 
       1.897798006914e-02       2.881005322039e+04 
       1.909904462590e-02       2.875380213152e+04 
       1.922017919724e-02       2.869645961289e+04 
       1.934138510781e-02       2.863803314100e+04 
       1.946266371531e-02       2.857860724678e+04 
       1.958401641121e-02       2.851811369943e+04 
       1.970544462148e-02       2.845659420750e+04 
       1.982694980735e-02       2.839406910545e+04 
       1.994853346605e-02       2.833063302206e+04 
       2.007019713163e-02       2.826628785582e+04 
       2.019194237580e-02       2.820094547783e+04 
       2.031377080876e-02       2.813470721332e+04 
       2.043568408007e-02       2.806756918860e+04 
       2.055768387959e-02       2.799959295063e+04 
       2.067977193838e-02       2.793077261475e+04 
       2.080195002968e-02       2.786103756738e+04 
       2.092421996990e-02       2.779058886932e+04 
       2.104658361966e-02       2.771931677465e+04 
       2.116904288482e-02       2.764724913934e+04 
       2.129159971762e-02       2.757443182779e+04 
       2.141425611774e-02       2.750089429716e+04 
       2.153701413353e-02       2.742660736450e+04 
       2.165987586316e-02       2.735164139578e+04 
       2.178284345590e-02       2.727591897012e+04 
       2.190591911335e-02       2.719954609956e+04 
       2.202910509081e-02       2.712264220696e+04 
       2.215240369858e-02       2.704489543874e+04 
       2.227581730343e-02       2.696672887878e+04 
       2.239934833002e-02       2.688787647701e+04 
       2.252299926238e-02       2.680837413535e+04 
       2.264677264547e-02       2.672830413249e+04 
       2.277067108681e-02       2.664771103062e+04 
       2.289469725807e-02       2.656657789413e+04 
       2.301885389681e-02       2.648488482328e+04 
       2.314314380825e-02       2.640271313619e+04 
       2.326756986705e-02       2.632005524649e+04 
       2.339213501923e-02       2.623687608888e+04 
       2.351684228407e-02       2.615328030174e+04 
       2.364169475618e-02       2.606914101645e+04 
       2.376669560751e-02       2.598458143344e+04 
       2.389184808955e-02       2.589968565383e+04 
       2.401715553552e-02       2.581434840387e+04 
       2.414262136268e-02       2.572855317885e+04 
       2.426824907472e-02       2.564238627767e+04 
       2.439404226421e-02       2.555583194218e+04 
       2.452000461516e-02       2.546898196713e+04 
       2.464613990562e-02       2.538172062878e+04 
       2.477245201050e-02       2.529427482733e+04 
       2.489894490429e-02       2.520631943515e+04 
       2.502562266411e-02       2.511815690550e+04 
       2.515248947266e-02       2.502963689041e+04 
       2.527954962141e-02       2.494087789774e+04 
       2.540680751389e-02       2.485188304768e+04 
       2.553426766904e-02       2.476252925879e+04 
       2.566193472477e-02       2.467298877515e+04 
       2.578981344156e-02       2.458322686536e+04 
       2.591790870631e-02       2.449313793222e+04 
       2.604622553622e-02       2.440292196007e+04 
       2.617476908292e-02       2.431250065921e+04 
       2.630354463668e-02       2.422186863031e+04 
       2.643255763084e-02       2.413109328531e+04 
       2.656181364641e-02       2.404003029668e+04 
       2.669131841680e-02       2.394884057893e+04 
       2.682107783281e-02       2.385755965149e+04 
       2.695109794777e-02       2.376607743863e+04 
       2.708138498293e-02       2.367448639660e+04 
       2.721194533301e-02       2.358274247916e+04 
       2.734278557209e-02       2.349090588442e+04 
       2.747391245960e-02       2.339901274449e+04 
       2.760533294667e-02       2.330690876594e+04 
       2.773705418273e-02       2.321473126001e+04 
       2.786908352235e-02       2.312253854283e+04 
       2.800142853243e-02       2.303023265411e+04 
       2.813409699967e-02       2.293786197634e+04 
       2.826709693835e-02       2.284542090282e+04 
       2.840043659852e-02       2.275292473291e+04 
       2.853412447450e-02       2.266047582935e+04 
       2.866816931377e-02       2.256788771325e+04 
       2.880258012627e-02       2.247521445208e+04 
       2.893736619415e-02       2.238265310648e+04 
       2.907253708194e-02       2.229003505000e+04 
       2.920810264721e-02       2.219736792058e+04 
       2.934407305175e-02       2.210474438191e+04 
       2.948045877321e-02       2.201211032601e+04 
       2.961727061742e-02       2.191949384891e+04 
       2.975451973121e-02       2.182683374592e+04 
       2.989221761589e-02       2.173420992386e+04 
       3.003037614139e-02       2.164166136066e+04 
       3.016900756117e-02       2.154908409223e+04 
       3.030812452776e-02       2.145657871012e+04 
       3.044774010920e-02       2.136408297927e+04 
       3.058786780630e-02       2.127167287743e+04 
       3.072852157076e-02       2.117931779594e+04 
       3.086971582433e-02       2.108691659684e+04 
       3.101146547885e-02       2.099467267896e+04 
       3.115378595751e-02       2.090243560976e+04 
       3.129669321722e-02       2.081031711876e+04 
       3.144020377212e-02       2.071824145343e+04 
       3.158433471856e-02       2.062630887235e+04 
       3.172910376133e-02       2.053429829668e+04 
       3.187452924144e-02       2.044245898529e+04 
       3.202063016555e-02       2.035079418156e+04 
       3.216742623699e-02       2.025902477432e+04 
       3.231493788869e-02       2.016742099644e+04 
       3.246318631807e-02       2.007588901911e+04 
       3.261219352393e-02       1.998452359065e+04 
       3.276198234571e-02       1.989316584966e+04 
       3.291257650510e-02       1.980192972590e+04 
       3.306400065020e-02       1.971075832024e+04 
       3.321628040257e-02       1.961972127745e+04 
       3.336944240719e-02       1.952872494903e+04 
       3.352351438569e-02       1.943785264071e+04 
       3.367852519309e-02       1.934713906516e+04 
       3.383450487819e-02       1.925643718994e+04 
       3.399148474820e-02       1.916588581563e+04 
       3.414949743755e-02       1.907539822720e+04 
       3.430857698166e-02       1.898504471340e+04 
       3.446875889567e-02       1.889472324613e+04 
       3.463008025889e-02       1.880459530589e+04 
       3.479257980522e-02       1.871444683393e+04 
       3.495629802021e-02       1.862443887929e+04 
       3.512127724527e-02       1.853452552841e+04 
       3.528756178965e-02       1.844466962207e+04 
       3.545519805097e-02       1.835492956863e+04 
       3.562423464504e-02       1.826529240881e+04 
       3.579472254579e-02       1.817564392675e+04 
       3.596671523640e-02       1.808612142498e+04 
       3.614026887252e-02       1.799667732020e+04 
       3.631544245892e-02       1.790725437092e+04 
       3.649229804085e-02       1.781794640453e+04 
       3.667090091150e-02       1.772869199990e+04 
       3.685131983735e-02       1.763945838043e+04 
       3.703362730319e-02       1.755026627647e+04 
       3.721789977886e-02       1.746113713349e+04 
       3.740421801010e-02       1.737204673142e+04 
       3.759266733610e-02       1.728294034050e+04 
       3.778333803674e-02       1.719390186461e+04 
       3.797632571286e-02       1.710486758137e+04 
       3.817173170333e-02       1.701577648042e+04 
       3.836966354332e-02       1.692675562481e+04 
       3.857023546854e-02       1.683768708259e+04 
       3.877356897116e-02       1.674852764488e+04 
       3.897979341371e-02       1.665937693766e+04 
       3.918904670834e-02       1.657018198353e+04 
       3.940147606981e-02       1.648086404943e+04 
       3.961723885185e-02       1.639156484689e+04 
       3.983650347813e-02       1.630211505971e+04 
       4.005945048063e-02       1.621253781170e+04 
       4.028627366054e-02       1.612283142276e+04 
       4.051718138899e-02       1.603302982863e+04 
       4.075239806802e-02       1.594300318695e+04 
       4.099216577565e-02       1.585280627826e+04 
       4.123674612296e-02       1.576238476693e+04 
       4.148642235616e-02       1.567182020906e+04 
       4.174150174270e-02       1.558092116126e+04 
       4.200231828759e-02       1.548974216658e+04 
       4.226923583501e-02       1.539825258995e+04 
       4.254265162110e-02       1.530639133611e+04 
       4.282300035679e-02       1.521415345508e+04 
       4.311075893579e-02       1.512149336164e+04 
       4.340645188291e-02       1.502838745176e+04 
       4.371065768219e-02       1.493473507675e+04 
       4.402401615527e-02       1.484053990772e+04 
       4.434723709877e-02       1.474569311328e+04 
       4.468111043710e-02       1.465018697199e+04 
       4.502651820803e-02       1.455389130882e+04 
       4.538444877439e-02       1.445676923346e+04 
       4.575601375216e-02       1.435868472329e+04 
       4.614246826849e-02       1.425962378360e+04 
       4.654523531967e-02       1.415940767563e+04 
       4.696593519920e-02       1.405792266838e+04 
       4.740642122070e-02       1.395499631169e+04 
       4.786882328322e-02       1.385045504188e+04 
       4.835560123373e-02       1.374408229961e+04 
       4.886961048627e-02       1.363564209103e+04 
       4.941418296853e-02       1.352480138405e+04 
       4.999322717330e-02       1.341122445586e+04 
       5.061135183772e-02       1.329441576201e+04 
       5.127401840452e-02       1.317383278705e+04 
       5.198772758185e-02       1.304869411697e+04 
