# dimensionless total lensed [l(l+1)/2pi] C_l's
# for l=2 to 5500, i.e. number of multipoles equal to 5499
#
# -> if you prefer output in CAMB/HealPix/LensPix units/order, set 'format' to 'camb' in input file
# -> if you don't want to see such a header, set 'headers' to 'no' in input file
# -> for CMB lensing (phi), these are C_l^phi-phi for the lensing potential.
#    Remember the conversion factors:
#    C_l^dd (deflection) = l(l+1) C_l^phi-phi
#    C_l^gg (shear/convergence) = 1/4 (l(l+1))^2 C_l^phi-phi
#
# 1:l     2:TT                     3:EE                     4:TE                     5:BB                     6:phiphi                 7:TPhi                   8:Ephi               
    2       1.539145256626e-10       4.298635894971e-15       3.388548047819e-13       2.112226263359e-19       7.627597996052e-09       5.329503224302e-10      -1.843706577078e-12 
    3       1.425925570889e-10       5.316897639269e-15       3.858324148179e-13       4.225516946289e-19       4.739209087220e-09       3.738058772859e-10      -1.368500193629e-12 
    4       1.328945486374e-10       4.407689056832e-15       3.611064281730e-13       7.044864934138e-19       3.304331084581e-09       2.807228573024e-10      -8.638803227530e-13 
    5       1.258003759805e-10       2.814072488820e-15       3.062483342647e-13       1.057161067291e-18       2.468245151044e-09       2.204253527660e-10      -4.500249675848e-13 
    6       1.209010950496e-10       1.525500353921e-15       2.452607339601e-13       1.480736442375e-18       1.927753447203e-09       1.785113428079e-10      -1.560910735309e-13 
    7       1.176235391165e-10       8.347381418652e-16       1.917623700728e-13       1.975396641959e-18       1.553809777069e-09       1.479269246883e-10       2.073809858545e-14 
    8       1.155559335066e-10       5.658634554035e-16       1.514289020293e-13       2.541344254194e-18       1.282739334437e-09       1.248937853924e-10       1.006045038900e-13 
    9       1.144101807642e-10       4.618929482401e-16       1.251778706874e-13       3.178795717868e-18       1.079467106279e-09       1.071240040242e-10       1.116382344023e-13 
   10       1.138848000764e-10       3.870738081231e-16       1.113434128113e-13       3.887976501196e-18       9.226454178887e-10       9.305586732884e-11       8.311831641629e-14 
   11       1.138656667787e-10       3.229525811961e-16       1.070331627335e-13       4.669116350364e-18       7.810780549543e-10       8.196173799917e-11       4.070395491990e-14 
   12       1.142457930510e-10       2.871444904977e-16       1.090718049034e-13       5.522444778988e-18       6.823961239403e-10       7.241669355497e-11       1.518385408159e-15 
   13       1.148916237298e-10       2.825517339844e-16       1.147871671570e-13       6.448186957217e-18       6.013765929950e-10       6.456309029820e-11      -2.440497258110e-14 
   14       1.158189398014e-10       2.974834108297e-16       1.222787729574e-13       7.446560140231e-18       5.339547957080e-10       5.780459633626e-11      -3.496905514708e-14 
   15       1.169000169624e-10       3.236456450245e-16       1.303621376073e-13       8.517770751281e-18       4.771987464810e-10       5.207095912714e-11      -3.271489964554e-14 
   16       1.181707748308e-10       3.629711243936e-16       1.385487834002e-13       9.662012205155e-18       4.289401808895e-10       4.713904826044e-11      -2.310379021593e-14 
   17       1.195772098011e-10       4.212351908891e-16       1.468018928559e-13       1.087946352534e-17       3.875409252092e-10       4.289371529925e-11      -1.181101578306e-14 
   18       1.210882146138e-10       5.008517369517e-16       1.553822281772e-13       1.217028839074e-17       3.516091751891e-10       3.918346434202e-11      -3.291362468139e-15 
   19       1.227199142254e-10       6.008447568461e-16       1.644817566030e-13       1.353463727448e-17       3.205721592111e-10       3.593815958273e-11       8.425561814782e-16 
   20       1.244381295733e-10       7.188077118858e-16       1.741933981426e-13       1.497264422910e-17       2.932376749664e-10       3.304338709683e-11       2.252960562345e-16 
   21       1.262412371153e-10       8.548051809196e-16       1.843696020849e-13       1.648443413122e-17       2.691766887296e-10       3.048097651972e-11      -3.739935614164e-15 
   22       1.281068278288e-10       1.009363489545e-15       1.947009631186e-13       1.807011894396e-17       2.478129077420e-10       2.821794343566e-11      -8.695886023268e-15 
   23       1.300408264279e-10       1.182222064360e-15       2.048103821426e-13       1.972980644273e-17       2.288527522367e-10       2.620123653053e-11      -1.298378244238e-14 
   24       1.320353425575e-10       1.372915522794e-15       2.142672627440e-13       2.146359643989e-17       2.118584099241e-10       2.435119402683e-11      -1.519985457860e-14 
   25       1.340865943396e-10       1.582568360997e-15       2.228101183676e-13       2.327159097858e-17       1.966298715399e-10       2.266608743508e-11      -1.517742034544e-14 
   26       1.361785745036e-10       1.812930039992e-15       2.302566126520e-13       2.515388988312e-17       1.828912536346e-10       2.115151578829e-11      -1.334945647167e-14 
   27       1.383193839858e-10       2.065842222253e-15       2.366172324776e-13       2.711059953444e-17       1.704775438950e-10       1.979332099568e-11      -1.069030695067e-14 
   28       1.405133577220e-10       2.343158233343e-15       2.419815375792e-13       2.914182974077e-17       1.591745664873e-10       1.856163068849e-11      -8.364744238529e-15 
   29       1.427639158548e-10       2.646150265425e-15       2.464042373397e-13       3.124770365659e-17       1.489244692730e-10       1.744602831724e-11      -6.782085607272e-15 
   30       1.450598371135e-10       2.975878075043e-15       2.499535346795e-13       3.342835121675e-17       1.396170919992e-10       1.643014159409e-11      -6.137293955556e-15 
   31       1.473792343517e-10       3.333333792352e-15       2.526906666869e-13       3.568390833791e-17       1.310624768232e-10       1.548893470255e-11      -6.533547201120e-15 
   32       1.497264351249e-10       3.719420910673e-15       2.545245682598e-13       3.801452288404e-17       1.232162981580e-10       1.461833067417e-11      -7.623404828153e-15 
   33       1.521062859111e-10       4.134954027763e-15       2.553004690114e-13       4.042035242376e-17       1.160229085523e-10       1.381496727083e-11      -8.816488016922e-15 
   34       1.545169423116e-10       4.580718455593e-15       2.548530790384e-13       4.290156159925e-17       1.093814594696e-10       1.307068239566e-11      -9.511685410551e-15 
   35       1.569624275734e-10       5.057686330578e-15       2.530691229172e-13       4.545831513772e-17       1.032578050693e-10       1.238274831848e-11      -9.624454822341e-15 
   36       1.594427556846e-10       5.566870459239e-15       2.498449901677e-13       4.809078367905e-17       9.760266031829e-11       1.174623723652e-11      -9.242374112120e-15 
   37       1.619534243984e-10       6.109214164769e-15       2.450915811484e-13       5.079913888199e-17       9.234225621675e-11       1.115344076901e-11      -8.492959992181e-15 
   38       1.644981553564e-10       6.685414586500e-15       2.388093324351e-13       5.358352790357e-17       8.746291484669e-11       1.060284586894e-11      -7.556948475955e-15 
   39       1.670791703255e-10       7.296033205441e-15       2.310391046539e-13       5.644409097677e-17       8.294909205605e-11       1.009252354291e-11      -6.664512407255e-15 
   40       1.696930224701e-10       7.941535342434e-15       2.218437679674e-13       5.938096833059e-17       7.875765575142e-11       9.617372087378e-12      -6.095698434646e-15 
   41       1.723330636209e-10       8.622380334887e-15       2.112825112885e-13       6.239428898814e-17       7.483288820557e-11       9.170920872860e-12      -6.093817341926e-15 
   42       1.749992374043e-10       9.339341987349e-15       1.993205898725e-13       6.548413262535e-17       7.116314958697e-11       8.752112157305e-12      -6.564288131170e-15 
   43       1.776904761220e-10       1.009328220564e-14       1.858923832357e-13       6.865055540094e-17       6.773861126976e-11       8.360261894603e-12      -7.282951256020e-15 
   44       1.804015401353e-10       1.088506427226e-14       1.709253020021e-13       7.189359944993e-17       6.453425309178e-11       7.993039289589e-12      -7.974278008125e-15 
   45       1.831263305918e-10       1.171546684267e-14       1.543472239981e-13       7.521328492788e-17       6.151877759394e-11       7.647357807444e-12      -8.381510018182e-15 
   46       1.858699101160e-10       1.258489405661e-14       1.361127716504e-13       7.860958500302e-17       5.868737900349e-11       7.322680010066e-12      -8.509331468047e-15 
   47       1.886394250816e-10       1.349357963976e-14       1.161839390216e-13       8.208244216360e-17       5.603671485395e-11       7.018473960977e-12      -8.448513934365e-15 
   48       1.914405569777e-10       1.444166154929e-14       9.452268206870e-14       8.563177369806e-17       5.355502409526e-11       6.733202281640e-12      -8.310110303872e-15 
   49       1.942773526637e-10       1.542917750741e-14       7.109081976073e-14       8.925747055861e-17       5.122150139266e-11       6.464247828092e-12      -8.226595343617e-15 
   50       1.971519947719e-10       1.645613803197e-14       4.585272095737e-14       9.295940221430e-17       4.901255125075e-11       6.208701725900e-12      -8.318209492301e-15 
   51       2.000644332486e-10       1.752277926033e-14       1.878445425144e-14       9.673743539931e-17       4.692400333249e-11       5.966152076451e-12      -8.578574124592e-15 
   52       2.030123603854e-10       1.862937103114e-14      -1.013304917639e-14       1.005914184893e-16       4.495384567453e-11       5.736523740959e-12      -8.959999388870e-15 
   53       2.059910934636e-10       1.977614458506e-14      -4.091653279960e-14       1.045211751227e-16       4.309557711530e-11       5.519249199924e-12      -9.405082193326e-15 
   54       2.089934021931e-10       2.096329174526e-14      -7.358038253342e-14       1.085265033458e-16       4.133790535036e-11       5.313234811325e-12      -9.846209280703e-15 
   55       2.120121348413e-10       2.219092330119e-14      -1.081341191778e-13       1.126071998064e-16       3.966818229309e-11       5.117223913167e-12      -1.021994457764e-14 
   56       2.150492559054e-10       2.345893393091e-14      -1.445742200702e-13       1.167631413279e-16       3.808440126283e-11       4.931069060344e-12      -1.051551506399e-14 
   57       2.181087513371e-10       2.476710228710e-14      -1.828902093336e-13       1.209942221035e-16       3.658565127592e-11       4.754716737303e-12      -1.073749943075e-14 
   58       2.211939644212e-10       2.611512649706e-14      -2.230668293631e-13       1.253003305420e-16       3.516848792836e-11       4.587820321707e-12      -1.089208028431e-14 
   59       2.243075322538e-10       2.750262175374e-14      -2.650839121725e-13       1.296813493895e-16       3.382677706040e-11       4.429721804096e-12      -1.098712712810e-14 
   60       2.274513222212e-10       2.892911790672e-14      -3.089162507388e-13       1.341371558509e-16       3.255153842107e-11       4.279433507557e-12      -1.103227934404e-14 
   61       2.306266685049e-10       3.039406965022e-14      -3.545395963809e-13       1.386676503262e-16       3.133343339895e-11       4.135913851500e-12      -1.103721109856e-14 
   62       2.338352873337e-10       3.189689520962e-14      -4.019505150287e-13       1.432728498848e-16       3.017123441073e-11       3.999008329994e-12      -1.100578322498e-14 
   63       2.370784553849e-10       3.343694210321e-14      -4.511507798905e-13       1.479528160830e-16       2.906498778942e-11       3.868688268571e-12      -1.094071994663e-14 
   64       2.403566749545e-10       3.501347334184e-14      -5.021417031290e-13       1.527076292096e-16       2.801346646371e-11       3.744766644662e-12      -1.084533591409e-14 
   65       2.436696199555e-10       3.662566541955e-14      -5.549242015816e-13       1.575373893149e-16       2.701409751673e-11       3.626889137063e-12      -1.072356150053e-14 
   66       2.470160819160e-10       3.827260630424e-14      -6.094988624803e-13       1.624422172398e-16       2.606288974490e-11       3.514525175396e-12      -1.057996809713e-14 
   67       2.503939159775e-10       3.995329342839e-14      -6.658660091713e-13       1.674222556454e-16       2.515436121667e-11       3.406958989577e-12      -1.041979340844e-14 
   68       2.538009629275e-10       4.166668592812e-14      -7.240206917798e-13       1.724776610256e-16       2.428299969688e-11       3.303481393587e-12      -1.024832502198e-14 
   69       2.572381529544e-10       4.341187814359e-14      -7.839363336316e-13       1.776085755640e-16       2.344814947645e-11       3.204030269487e-12      -1.006884953183e-14 
   70       2.607069366733e-10       4.518795782629e-14      -8.455778740029e-13       1.828151513973e-16       2.264998915612e-11       3.108664379482e-12      -9.884331385867e-15 
   71       2.642083362188e-10       4.699395439032e-14      -9.089064870567e-13       1.880975599120e-16       2.188805375185e-11       3.017370366148e-12      -9.698026566547e-15 
   72       2.677429162057e-10       4.882883829052e-14      -9.738795177655e-13       1.934559925428e-16       2.116120145727e-11       2.930058935769e-12      -9.513491473893e-15 
   73       2.713107546900e-10       5.069152040056e-14      -1.040450417835e-12       1.988906615713e-16       2.046758040624e-11       2.846561041670e-12      -9.334591808440e-15 
   74       2.749114141292e-10       5.258085139104e-14      -1.108568681626e-12       2.044018009248e-16       1.980459543539e-11       2.766624067546e-12      -9.165511454205e-15 
   75       2.785439123438e-10       5.449562110759e-14      -1.178179782080e-12       2.099896669751e-16       1.916887484657e-11       2.689908010799e-12      -9.010761361638e-15 
   76       2.822072401964e-10       5.643455285937e-14      -1.249229911844e-12       2.156545036659e-16       1.855710515610e-11       2.616071090428e-12      -8.874085912548e-15 
   77       2.859020878078e-10       5.839628645695e-14      -1.321681346437e-12       2.213964287885e-16       1.796878455127e-11       2.545053030244e-12      -8.754932139899e-15 
   78       2.896293818290e-10       6.037939093707e-14      -1.395499779233e-12       2.272155283231e-16       1.740391348688e-11       2.476836739605e-12      -8.651349800404e-15 
   79       2.933897491084e-10       6.238236866328e-14      -1.470649798690e-12       2.331118903353e-16       1.686215605345e-11       2.411361520790e-12      -8.561023270638e-15 
   80       2.971834988632e-10       6.440365459971e-14      -1.547094922814e-12       2.390856050443e-16       1.634282453850e-11       2.348521086050e-12      -8.481257821965e-15 
   81       3.010106048515e-10       6.644161558475e-14      -1.624797633613e-12       2.451367648895e-16       1.584486398785e-11       2.288161574669e-12      -8.408965895482e-15 
   82       3.048706875438e-10       6.849454960481e-14      -1.703719411553e-12       2.512654645979e-16       1.536683676689e-11       2.230079570016e-12      -8.340653376942e-15 
   83       3.087629962949e-10       7.056068506804e-14      -1.783820770021e-12       2.574718012514e-16       1.490690712187e-11       2.174020116606e-12      -8.272405871700e-15 
   84       3.126867611096e-10       7.263822127896e-14      -1.865059161381e-12       2.637558885579e-16       1.446328593955e-11       2.119739764882e-12      -8.200789932783e-15 
   85       3.166423539972e-10       7.472545916272e-14      -1.947382220836e-12       2.701179022361e-16       1.403568356031e-11       2.067212057695e-12      -8.125758472062e-15 
   86       3.206302883527e-10       7.682069098129e-14      -2.030733460514e-12       2.765580423125e-16       1.362407062438e-11       2.016452631888e-12      -8.048204079938e-15 
   87       3.246508550356e-10       7.892216102615e-14      -2.115054296985e-12       2.830765198884e-16       1.322823169666e-11       1.967456342440e-12      -7.969088524824e-15 
   88       3.287041107529e-10       8.102806558441e-14      -2.200284049948e-12       2.896735574454e-16       1.284775756247e-11       1.920196372424e-12      -7.889444405445e-15 
   89       3.327898664427e-10       8.313655290502e-14      -2.286359940918e-12       2.963493891514e-16       1.248203752328e-11       1.874623342968e-12      -7.810376803132e-15 
   90       3.369076756573e-10       8.524572316493e-14      -2.373217091910e-12       3.031042611666e-16       1.213025169235e-11       1.830664423214e-12      -7.733064934126e-15 
   91       3.410568229470e-10       8.735362843530e-14      -2.460788524129e-12       3.099384319496e-16       1.179136329053e-11       1.788222440278e-12      -7.658763801869e-15 
   92       3.452363122434e-10       8.945827264766e-14      -2.549005156656e-12       3.168521725631e-16       1.146411094192e-11       1.747174989205e-12      -7.588805849309e-15 
   93       3.494451691986e-10       9.155765142307e-14      -2.637797436038e-12       3.238458075896e-16       1.114730705289e-11       1.707404454915e-12      -7.524269009617e-15 
   94       3.536834254515e-10       9.364987848533e-14      -2.727100508293e-12       3.309198442539e-16       1.084080101708e-11       1.668895176282e-12      -7.464920159936e-15 
   95       3.579512616063e-10       9.573307828627e-14      -2.816849825966e-12       3.380748633768e-16       1.054464730612e-11       1.631649317938e-12      -7.410115078543e-15 
   96       3.622486992574e-10       9.780534834331e-14      -2.906979607325e-12       3.453114813471e-16       1.025880883840e-11       1.595656800907e-12      -7.359114999940e-15 
   97       3.665755936824e-10       9.986475975287e-14      -2.997422857432e-12       3.526303509855e-16       9.983153476349e-12       1.560894836891e-12      -7.311083687859e-15 
   98       3.709316265350e-10       1.019093577037e-13      -3.088111389219e-12       3.600321624078e-16       9.717450523689e-12       1.527327462547e-12      -7.265084508262e-15 
   99       3.753162985383e-10       1.039371619904e-13      -3.178975844560e-12       3.675176438881e-16       9.461367222720e-12       1.494905073778e-12      -7.220077502349e-15 
  100       3.797289221773e-10       1.059461675264e-13      -3.269945715345e-12       3.750875627225e-16       9.214465251583e-12       1.463563960009e-12      -7.174916459561e-15 
  101       3.841686143928e-10       1.079343448579e-13      -3.360949364556e-12       3.827427260922e-16       8.976197221527e-12       1.433225838473e-12      -7.128345990585e-15 
  102       3.886342892734e-10       1.098996406769e-13      -3.451914047334e-12       3.904839819271e-16       8.745903174178e-12       1.403797388494e-12      -7.078998600353e-15 
  103       3.931246507493e-10       1.118399783345e-13      -3.542765932062e-12       3.983122197689e-16       8.522807078813e-12       1.375169785772e-12      -7.025391761053e-15 
  104       3.976384531240e-10       1.137533081403e-13      -3.633430626667e-12       4.062283046920e-16       8.306192248297e-12       1.347243978177e-12      -6.966284075104e-15 
  105       4.021753384909e-10       1.156377648928e-13      -3.723834793140e-12       4.142328670382e-16       8.095962118327e-12       1.320011404825e-12      -6.901804862699e-15 
  106       4.067350993437e-10       1.174915326851e-13      -3.813904791419e-12       4.223264857554e-16       7.892149043855e-12       1.293483363507e-12      -6.832472418673e-15 
  107       4.113174165282e-10       1.193127980669e-13      -3.903566219933e-12       4.305097529305e-16       7.694740626998e-12       1.267666062244e-12      -6.758849555425e-15 
