# dimensionless total [l(l+1)/2pi] C_l's
# for l=2 to 6000, i.e. number of multipoles equal to 5999
#
# -> if you prefer output in CAMB/HealPix/LensPix units/order, set 'format' to 'camb' in input file
# -> if you don't want to see such a header, set 'headers' to 'no' in input file
# -> for CMB lensing (phi), these are C_l^phi-phi for the lensing potential.
#    Remember the conversion factors:
#    C_l^dd (deflection) = l(l+1) C_l^phi-phi
#    C_l^gg (shear/convergence) = 1/4 (l(l+1))^2 C_l^phi-phi
#
# 1:l     2:TT                     3:EE                     4:TE                     5:BB                     6:phiphi                 7:TPhi                   8:Ephi               
    2       1.413261509792e-10       4.228186495377e-15       3.512616887785e-13       0.000000000000e+00       8.018685363925e-09       4.689219325698e-10      -1.855750358071e-12 
    3       1.331302833797e-10       5.369308087247e-15       3.956386943779e-13       0.000000000000e+00       5.013102115541e-09       3.323433952183e-10      -1.395807194678e-12 
    4       1.255565354111e-10       4.591213357219e-15       3.694077726176e-13       0.000000000000e+00       3.496648404699e-09       2.511192197324e-10      -9.051143377708e-13 
    5       1.199148286436e-10       3.026631131960e-15       3.138815390325e-13       0.000000000000e+00       2.612531759182e-09       1.979734650199e-10      -4.953334210795e-13 
    6       1.160293949480e-10       1.676613964001e-15       2.521922621200e-13       0.000000000000e+00       2.040796565077e-09       1.608681218345e-10      -1.963394273258e-13 
    7       1.135384238011e-10       9.064575778161e-16       1.976287835353e-13       0.000000000000e+00       1.645138663348e-09       1.337518641172e-10      -8.425552833815e-15 
    8       1.120148285448e-10       5.911108959726e-16       1.559459250385e-13       0.000000000000e+00       1.358615016486e-09       1.132195103094e-10       8.477316302918e-14 
    9       1.112548216743e-10       4.762593320225e-16       1.282857261263e-13       0.000000000000e+00       1.143986673116e-09       9.724619307162e-11       1.078934778257e-13 
   10       1.110644552011e-10       4.035589701920e-16       1.131298483489e-13       0.000000000000e+00       9.784060204099e-10       8.457660080978e-11       8.775918053115e-14 
   11       1.112754759647e-10       3.375922934634e-16       1.077747871404e-13       0.000000000000e+00       8.242227920519e-10       7.461201644027e-11       4.894685822341e-14 
   12       1.118609670566e-10       2.948915935210e-16       1.092094019689e-13       0.000000000000e+00       7.202319278064e-10       6.610717596380e-11       9.237788789763e-15 
   13       1.126798036908e-10       2.843339843917e-16       1.146504992547e-13       0.000000000000e+00       6.348584504845e-10       5.897240932560e-11      -2.014596976385e-14 
   14       1.136674269488e-10       2.966888058447e-16       1.220871801937e-13       0.000000000000e+00       5.638129598496e-10       5.284311489915e-11      -3.508296201614e-14 
   15       1.148489253912e-10       3.209095131665e-16       1.303135992382e-13       0.000000000000e+00       5.040078391839e-10       4.767029327469e-11      -3.657213544241e-14 
   16       1.161949905612e-10       3.557912666803e-16       1.386295737927e-13       0.000000000000e+00       4.531559522241e-10       4.326307505637e-11      -2.902243916549e-14 
   17       1.176294681667e-10       4.071946644462e-16       1.469597926755e-13       0.000000000000e+00       4.095297692091e-10       3.941453032715e-11      -1.789410255090e-14 
   18       1.191697292091e-10       4.797335350616e-16       1.555182330037e-13       0.000000000000e+00       3.716599821844e-10       3.600476361597e-11      -7.938132527588e-15 
   19       1.208245625893e-10       5.733455820761e-16       1.645084403709e-13       0.000000000000e+00       3.389482119940e-10       3.300927590703e-11      -1.457150310518e-15 
   20       1.225354392917e-10       6.858888490984e-16       1.740772514237e-13       0.000000000000e+00       3.101354871118e-10       3.035652429473e-11       2.223557882705e-16 
   21       1.243145029857e-10       8.168898966492e-16       1.841418974257e-13       0.000000000000e+00       2.847700846058e-10       2.803131825730e-11      -2.100234734080e-15 
   22       1.261640536739e-10       9.661131933882e-16       1.944727818808e-13       0.000000000000e+00       2.622457415163e-10       2.599298426489e-11      -6.506396258546e-15 
   23       1.280778911198e-10       1.133629087401e-15       2.047714002975e-13       0.000000000000e+00       2.422530122166e-10       2.418696582928e-11      -1.125158304963e-14 
   24       1.300270688239e-10       1.319471010470e-15       2.146608989278e-13       0.000000000000e+00       2.243299880421e-10       2.253244788829e-11      -1.458533691892e-14 
   25       1.320160275772e-10       1.523948120300e-15       2.237823229288e-13       0.000000000000e+00       2.082664174583e-10       2.100927032424e-11      -1.592487246582e-14 
   26       1.340456055475e-10       1.747678585423e-15       2.318087142310e-13       0.000000000000e+00       1.937722879868e-10       1.960657495566e-11      -1.522003688531e-14 
   27       1.361228501583e-10       1.992699448868e-15       2.387265593289e-13       0.000000000000e+00       1.806741037237e-10       1.833642980069e-11      -1.311120535335e-14 
   28       1.382460691479e-10       2.261467941945e-15       2.446382449031e-13       0.000000000000e+00       1.687463113937e-10       1.720610425207e-11      -1.054029874231e-14 
   29       1.404182737313e-10       2.555391254280e-15       2.495979207538e-13       0.000000000000e+00       1.579279649366e-10       1.620083613087e-11      -8.128109733015e-15 
   30       1.426301035224e-10       2.875527026481e-15       2.536700867458e-13       0.000000000000e+00       1.481027558028e-10       1.528434873145e-11      -6.501085559905e-15 
   31       1.448618007463e-10       3.222867419920e-15       2.569199450435e-13       0.000000000000e+00       1.390701740157e-10       1.441343357292e-11      -6.217261477607e-15 
   32       1.471178475662e-10       3.598323246484e-15       2.592909304567e-13       0.000000000000e+00       1.307837256926e-10       1.359090539560e-11      -7.016696265126e-15 
   33       1.494027184296e-10       4.002720598742e-15       2.606803065610e-13       0.000000000000e+00       1.231850939777e-10       1.283119615843e-11      -8.274611070584e-15 
   34       1.517139300061e-10       4.436839921374e-15       2.609720008062e-13       0.000000000000e+00       1.161682435182e-10       1.214345813306e-11      -9.323685023697e-15 
   35       1.540534514412e-10       4.901565111945e-15       2.600457823162e-13       0.000000000000e+00       1.096973063464e-10       1.152176246870e-11      -9.950939302737e-15 
   36       1.564185510584e-10       5.397778675067e-15       2.577692224827e-13       0.000000000000e+00       1.037203401524e-10       1.095046260063e-11      -1.006851057110e-14 
   37       1.588025654541e-10       5.926313775069e-15       2.540208245028e-13       0.000000000000e+00       9.815953536278e-11       1.041162571863e-11      -9.628765084089e-15 
   38       1.612110558642e-10       6.487936654852e-15       2.487816446158e-13       0.000000000000e+00       9.300053751481e-11       9.903946174964e-12      -8.782305755889e-15 
   39       1.636498534655e-10       7.083351912621e-15       2.420745018750e-13       0.000000000000e+00       8.822700811065e-11       9.429481438807e-12      -7.776358810442e-15 
   40       1.661200561898e-10       7.713202126158e-15       2.339408773542e-13       0.000000000000e+00       8.379345604642e-11       8.988345129837e-12      -6.917361292260e-15 
   41       1.686194477162e-10       8.378097247076e-15       2.244235664189e-13       0.000000000000e+00       7.964109003949e-11       8.578964383113e-12      -6.490326470866e-15 
   42       1.711485854455e-10       9.078723838104e-15       2.135051691830e-13       0.000000000000e+00       7.575769572774e-11       8.199410591721e-12      -6.476247767336e-15 
   43       1.737058013449e-10       9.815764712282e-15       2.011514491784e-13       0.000000000000e+00       7.213297021672e-11       7.846181268423e-12      -6.749087589751e-15 
   44       1.762850341288e-10       1.058986699007e-14       1.873279116828e-13       0.000000000000e+00       6.874055380407e-11       7.513632818598e-12      -7.150293902158e-15 
   45       1.788790599117e-10       1.140162017199e-14       1.719970553592e-13       0.000000000000e+00       6.554744644096e-11       7.195721139068e-12      -7.523995902037e-15 
   46       1.814912709078e-10       1.225148652132e-14       1.551095254209e-13       0.000000000000e+00       6.254862628571e-11       6.892220142940e-12      -7.839883545708e-15 
   47       1.841267431742e-10       1.313984699408e-14       1.366100427147e-13       0.000000000000e+00       5.974060642060e-11       6.604090772973e-12      -8.103638964738e-15 
   48       1.867887319088e-10       1.406701688848e-14       1.164394605981e-13       0.000000000000e+00       5.711099355339e-11       6.331693259188e-12      -8.323042450283e-15 
   49       1.894784835853e-10       1.503324298957e-14       9.453445546835e-14       0.000000000000e+00       5.463782570941e-11       6.074736914636e-12      -8.508101784485e-15 
   50       1.921959134459e-10       1.603870999472e-14       7.083776370742e-14       0.000000000000e+00       5.229618651308e-11       5.832505371017e-12      -8.670354939786e-15 
   51       1.949422906212e-10       1.708356847058e-14       4.533288631259e-14       0.000000000000e+00       5.008170115705e-11       5.604720834782e-12      -8.820254991817e-15 
   52       1.977179571205e-10       1.816790954910e-14       1.801826950595e-14       0.000000000000e+00       4.799227330843e-11       5.390827642481e-12      -8.969298927924e-15 
   53       2.005213825261e-10       1.929175394873e-14      -1.110223595265e-14       0.000000000000e+00       4.602105364505e-11       5.189700965639e-12      -9.130880524767e-15 
   54       2.033490168512e-10       2.045504955587e-14      -4.201918793466e-14       0.000000000000e+00       4.415611997519e-11       4.999609568392e-12      -9.320380779385e-15 
   55       2.061970399976e-10       2.165770989933e-14      -7.472243522933e-14       0.000000000000e+00       4.238411357031e-11       4.818702000780e-12      -9.550016185933e-15 
   56       2.090674561490e-10       2.289974630736e-14      -1.092176127174e-13       0.000000000000e+00       4.070293882146e-11       4.646691935540e-12      -9.811677713410e-15 
   57       2.119632556254e-10       2.418116434489e-14      -1.455134167038e-13       0.000000000000e+00       3.911165815495e-11       4.483526272232e-12      -1.008998705870e-14 
   58       2.148865792757e-10       2.550192498950e-14      -1.836169052552e-13       0.000000000000e+00       3.760665009514e-11       4.328881901192e-12      -1.036705395658e-14 
   59       2.178386452297e-10       2.686194380602e-14      -2.235335088677e-13       0.000000000000e+00       3.618144352247e-11       4.182148854767e-12      -1.062236237102e-14 
   60       2.208196756495e-10       2.826109012120e-14      -2.652670411335e-13       0.000000000000e+00       3.482655193148e-11       4.042413458551e-12      -1.083265668645e-14 
   61       2.238294629084e-10       2.969911437217e-14      -3.088184416657e-13       0.000000000000e+00       3.353210700010e-11       3.908722129396e-12      -1.097702123808e-14 
   62       2.268693823432e-10       3.117541296291e-14      -3.541816510145e-13       0.000000000000e+00       3.229682502734e-11       3.780980079229e-12      -1.105370870751e-14 
   63       2.299407033613e-10       3.268920892250e-14      -4.013468245469e-13       0.000000000000e+00       3.112076815604e-11       3.659225354562e-12      -1.106690427604e-14 
   64       2.330439379696e-10       3.423961603096e-14      -4.503014895125e-13       0.000000000000e+00       3.000264725994e-11       3.543358203497e-12      -1.102191556543e-14 
   65       2.361787878145e-10       3.582563571491e-14      -5.010305154860e-13       0.000000000000e+00       2.893974502174e-11       3.433133131675e-12      -1.092522360992e-14 
   66       2.393440912222e-10       3.744615394323e-14      -5.535160848102e-13       0.000000000000e+00       2.792783901108e-11       3.328150958216e-12      -1.078453382825e-14 
   67       2.425377702393e-10       3.909993812272e-14      -6.077376630387e-13       0.000000000000e+00       2.696112476264e-11       3.227850871669e-12      -1.060882699563e-14 
   68       2.457577779337e-10       4.078575566636e-14      -6.636727342009e-13       0.000000000000e+00       2.603376521302e-11       3.131659738032e-12      -1.040731892367e-14 
   69       2.490052815723e-10       4.250276453566e-14      -7.212992456724e-13       0.000000000000e+00       2.514507552819e-11       3.039492913414e-12      -1.018598078150e-14 
   70       2.522820322635e-10       4.425019661932e-14      -7.805936078781e-13       0.000000000000e+00       2.429525549971e-11       2.951341104409e-12      -9.950402028845e-15 
   71       2.555893948786e-10       4.602724306967e-14      -8.415299634841e-13       0.000000000000e+00       2.348382144712e-11       2.867118242801e-12      -9.706841971713e-15 
   72       2.589283206740e-10       4.783305431018e-14      -9.040801774008e-13       0.000000000000e+00       2.270957089080e-11       2.786657563297e-12      -9.462252824120e-15 
   73       2.622993199138e-10       4.966674004295e-14      -9.682138267866e-13       0.000000000000e+00       2.197054722490e-11       2.709707681264e-12      -9.224302769807e-15 
   74       2.657024344924e-10       5.152736925616e-14      -1.033898191051e-12       0.000000000000e+00       2.126400439019e-11       2.635928670474e-12      -9.001399023965e-15 
   75       2.691372105566e-10       5.341397023162e-14      -1.101098241859e-12       0.000000000000e+00       2.058637154698e-11       2.564888140834e-12      -8.802710894955e-15 
   76       2.726031117973e-10       5.532547806095e-14      -1.169777177383e-12       0.000000000000e+00       1.993413897643e-11       2.496170263740e-12      -8.636033891600e-15 
   77       2.761009068516e-10       5.726056612857e-14      -1.239898159642e-12       0.000000000000e+00       1.930678038157e-11       2.429734471094e-12      -8.500881404886e-15 
   78       2.796314863360e-10       5.921778376968e-14      -1.311422877287e-12       0.000000000000e+00       1.870430177558e-11       2.365615344722e-12      -8.394169306723e-15 
   79       2.831954265775e-10       6.119560498370e-14      -1.384311030598e-12       0.000000000000e+00       1.812635135796e-11       2.303813891389e-12      -8.312242279356e-15 
   80       2.867929712720e-10       6.319242736545e-14      -1.458520332648e-12       0.000000000000e+00       1.757220307795e-11       2.244295936623e-12      -8.250852605982e-15 
   81       2.904240131434e-10       6.520657103619e-14      -1.534006510469e-12       0.000000000000e+00       1.704074019792e-11       2.186990518530e-12      -8.205138961363e-15 
   82       2.940880756018e-10       6.723627757475e-14      -1.610723306212e-12       0.000000000000e+00       1.653043885684e-11       2.131788281620e-12      -8.169605202436e-15 
   83       2.977842944028e-10       6.927970894868e-14      -1.688622478316e-12       0.000000000000e+00       1.603935163366e-11       2.078539870623e-12      -8.138099158930e-15 
   84       3.015117899938e-10       7.133501253412e-14      -1.767654265036e-12       0.000000000000e+00       1.556558053510e-11       2.027094844805e-12      -8.104977064992e-15 
   85       3.052708956542e-10       7.340053090173e-14      -1.847768860799e-12       0.000000000000e+00       1.510882205567e-11       1.977429351455e-12      -8.068865109236e-15 
   86       3.090621002735e-10       7.547462501077e-14      -1.928915187873e-12       0.000000000000e+00       1.466904931112e-11       1.929536771515e-12      -8.029485483012e-15 
   87       3.128856641646e-10       7.755561125369e-14      -2.011040464554e-12       0.000000000000e+00       1.424603729780e-11       1.883388169420e-12      -7.986524919497e-15 
   88       3.167416072881e-10       7.964176149802e-14      -2.094090214105e-12       0.000000000000e+00       1.383935468170e-11       1.838931367937e-12      -7.939633411051e-15 
   89       3.206296974774e-10       8.173130312815e-14      -2.178008273691e-12       0.000000000000e+00       1.344835558747e-11       1.796090023003e-12      -7.888422926566e-15 
   90       3.245494386637e-10       8.382241908723e-14      -2.262736803308e-12       0.000000000000e+00       1.307217138752e-11       1.754762698560e-12      -7.832466128821e-15 
   91       3.285000591007e-10       8.591324791898e-14      -2.348216294726e-12       0.000000000000e+00       1.270970249099e-11       1.714821941391e-12      -7.771295091834e-15 
   92       3.324804995897e-10       8.800188380958e-14      -2.434385580417e-12       0.000000000000e+00       1.235961013283e-11       1.676113355962e-12      -7.704400018214e-15 
   93       3.364897483179e-10       9.008640538355e-14      -2.521182420230e-12       0.000000000000e+00       1.202063378006e-11       1.638493491252e-12      -7.631459763315e-15 
   94       3.405279285568e-10       9.216496695492e-14      -2.608545342952e-12       0.000000000000e+00       1.169261579253e-11       1.601952028917e-12      -7.553075853737e-15 
   95       3.445953535441e-10       9.423572114143e-14      -2.696412099521e-12       0.000000000000e+00       1.137561640708e-11       1.566506347213e-12      -7.470147007458e-15 
   96       3.486921875228e-10       9.629679176412e-14      -2.784719126614e-12       0.000000000000e+00       1.106959816053e-11       1.532163959296e-12      -7.383649037436e-15 
   97       3.528184387244e-10       9.834627428376e-14      -2.873401563504e-12       0.000000000000e+00       1.077442214851e-11       1.498922120825e-12      -7.294636750944e-15 
   98       3.569739523511e-10       1.003822362375e-13      -2.962393268931e-12       0.000000000000e+00       1.048984428413e-11       1.466767437562e-12      -7.204245848893e-15 
   99       3.611584035595e-10       1.024027176753e-13      -3.051626837962e-12       0.000000000000e+00       1.021551155676e-11       1.435675472981e-12      -7.113694825158e-15 
  100       3.653712904425e-10       1.044057315965e-13      -3.141033618860e-12       0.000000000000e+00       9.950958290731e-12       1.405610355865e-12      -7.024286865904e-15 
  101       3.696119270128e-10       1.063892643867e-13      -3.230543729948e-12       0.000000000000e+00       9.695602404080e-12       1.376524387914e-12      -6.937411748916e-15 
  102       3.738794361851e-10       1.083512762537e-13      -3.320086076475e-12       0.000000000000e+00       9.448741667296e-12       1.348357651345e-12      -6.854547742921e-15 
  103       3.781727427593e-10       1.102897016646e-13      -3.409588367478e-12       0.000000000000e+00       9.209549962048e-12       1.321037616497e-12      -6.777263506918e-15 
  104       3.824907959390e-10       1.122025014077e-13      -3.498977849080e-12       0.000000000000e+00       8.977264413172e-12       1.294495718934e-12      -6.706846174804e-15 
  105       3.868332862340e-10       1.140878258493e-13      -3.588183580857e-12       0.000000000000e+00       8.751783632297e-12       1.268720486257e-12      -6.643124300670e-15 
  106       3.912000127698e-10       1.159438746467e-13      -3.677134499850e-12       0.000000000000e+00       8.533143689640e-12       1.243710889823e-12      -6.585488711252e-15 
  107       3.955906579588e-10       1.177688480845e-13      -3.765758756029e-12       0.000000000000e+00       8.321332833400e-12       1.219459812668e-12      -6.533249940012e-15 
