# dimensionless total lensed [l(l+1)/2pi] C_l's
# for l=2 to 5500, i.e. number of multipoles equal to 5499
#
# -> if you prefer output in CAMB/HealPix/LensPix units/order, set 'format' to 'camb' in input file
# -> if you don't want to see such a header, set 'headers' to 'no' in input file
# -> for CMB lensing (phi), these are C_l^phi-phi for the lensing potential.
#    Remember the conversion factors:
#    C_l^dd (deflection) = l(l+1) C_l^phi-phi
#    C_l^gg (shear/convergence) = 1/4 (l(l+1))^2 C_l^phi-phi
#
# 1:l     2:TT                     3:EE                     4:TE                     5:BB                     6:phiphi                 7:TPhi                   8:Ephi               
    2       1.540043746594e-10       4.301604995155e-15       3.390438998509e-13       2.131700869255e-19       7.643672051381e-09       5.339357837903e-10      -1.844465493659e-12 
    3       1.427037207918e-10       5.321169634852e-15       3.861439950097e-13       4.264482190059e-19       4.750886693926e-09       3.746320431562e-10      -1.369234235350e-12 
    4       1.330286708340e-10       4.411738195406e-15       3.614872378867e-13       7.109842258770e-19       3.313117214830e-09       2.814231159623e-10      -8.644794859816e-13 
    5       1.259598598152e-10       2.817117236199e-15       3.066511318365e-13       1.066914186709e-18       2.475167730976e-09       2.210282995116e-10      -4.504749276669e-13 
    6       1.210880204779e-10       1.527484645512e-15       2.456565524454e-13       1.494401585279e-18       1.933403552307e-09       1.790362526903e-10      -1.564201943470e-13 
    7       1.178396244876e-10       8.359371876058e-16       1.921438077985e-13       1.993633273214e-18       1.558535217055e-09       1.483876914856e-10       2.048396938983e-14 
    8       1.158031579074e-10       5.666116068641e-16       1.518060774974e-13       2.564814979140e-18       1.286761317801e-09       1.253016751577e-10       1.003810085337e-13 
    9       1.146900687390e-10       4.625103247269e-16       1.255716095081e-13       3.208166531875e-18       1.082939267298e-09       1.074880290106e-10       1.114153147859e-13 
   10       1.141981122922e-10       3.878470338349e-16       1.117791595233e-13       3.923916974775e-18       9.256819299430e-10       9.338256559227e-11       8.288563618561e-14 
   11       1.142134264536e-10       3.240910624207e-16       1.075359585400e-13       4.712299750160e-18       7.838740400717e-10       8.226096833518e-11       4.047339973495e-14 
   12       1.146287330461e-10       2.887508822127e-16       1.096625838698e-13       5.573548127111e-18       6.848988685122e-10       7.268736027138e-11       1.302528990071e-15 
   13       1.153097887458e-10       2.846566865479e-16       1.154825726970e-13       6.507891033329e-18       6.036305255835e-10       6.480923470333e-11      -2.458575995581e-14 
   14       1.162731604923e-10       3.001240198370e-16       1.230913110709e-13       7.515549432522e-18       5.359953611989e-10       5.802894196134e-11      -3.510241167175e-14 
   15       1.173900076239e-10       3.269231666788e-16       1.313001664713e-13       8.596733363874e-18       4.790546323709e-10       5.227579922612e-11      -3.279745287575e-14 
   16       1.186964677533e-10       3.670523150611e-16       1.396185667410e-13       9.751639730525e-18       4.306349389835e-10       4.732640828981e-11      -2.314390066878e-14 
   17       1.201383987782e-10       4.263169268706e-16       1.480086365560e-13       1.098045089096e-17       3.890941048792e-10       4.306580361992e-11      -1.182568157411e-14 
   18       1.216846314491e-10       5.071301446198e-16       1.567311343385e-13       1.228333368498e-17       3.530368061062e-10       3.934207851338e-11      -3.301383583490e-15 
   19       1.233512404660e-10       6.085199441057e-16       1.659778330932e-13       1.366044158715e-17       3.218888888796e-10       3.608467850781e-11       8.189622293871e-16 
   20       1.251039236322e-10       7.280866111254e-16       1.758413299539e-13       1.511191144559e-17       2.944548978876e-10       3.317860994212e-11       1.766428990070e-16 
   21       1.269409815508e-10       8.659132559382e-16       1.861733990381e-13       1.663787079945e-17       2.703047513574e-10       3.060594377398e-11      -3.817303780209e-15 
   22       1.288399312990e-10       1.022546752663e-15       1.966637906668e-13       1.823843408866e-17       2.488604521480e-10       2.833399215226e-11      -8.796683295593e-15 
   23       1.308066943249e-10       1.197733779078e-15       2.069344208258e-13       1.991371146888e-17       2.298276548208e-10       2.630930925493e-11      -1.309821627824e-14 
   24       1.328333831339e-10       1.391013593766e-15       2.165537118968e-13       2.166380498272e-17       2.127672395221e-10       2.445158296137e-11      -1.531577622106e-14 
   25       1.349161882048e-10       1.603533452649e-15       2.252596315955e-13       2.348881885732e-17       1.974786499716e-10       2.275924661553e-11      -1.528470412733e-14 
   26       1.370390605980e-10       1.837071600292e-15       2.328696073764e-13       2.538885499410e-17       1.836851393976e-10       2.123822930833e-11      -1.344236247176e-14 
   27       1.392101194760e-10       2.093490943046e-15       2.393943995541e-13       2.736402183030e-17       1.712212034298e-10       1.987429104795e-11      -1.076828289348e-14 
   28       1.414337193284e-10       2.374663759773e-15       2.449240443311e-13       2.941443116272e-17       1.598719720899e-10       1.863731972932e-11      -8.432587098987e-15 
   29       1.437132451648e-10       2.681880687132e-15       2.495132356453e-13       3.154020815802e-17       1.495794532577e-10       1.751686086054e-11      -6.845829464333e-15 
   30       1.460373993611e-10       3.016219635006e-15       2.532300611791e-13       3.374148470855e-17       1.402331324338e-10       1.649652549859e-11      -6.202765018297e-15 
   31       1.483842099122e-10       3.378690437772e-15       2.561355430818e-13       3.601839861073e-17       1.316423867221e-10       1.555122298279e-11      -6.605772722193e-15 
   32       1.507580122418e-10       3.770213033626e-15       2.581377230610e-13       3.837109956637e-17       1.237627653394e-10       1.467684486493e-11      -7.705168963578e-15 
   33       1.531636858352e-10       4.191617582152e-15       2.590806045674e-13       4.079974691615e-17       1.165384398553e-10       1.386997449287e-11      -8.907323133003e-15 
   34       1.555994240815e-10       4.643704915226e-15       2.587976237740e-13       4.330450696596e-17       1.098681991461e-10       1.312237860389e-11      -9.607875772304e-15 
   35       1.580693192407e-10       5.127465127836e-15       2.571747027907e-13       4.588554588520e-17       1.037177893857e-10       1.243133274718e-11      -9.722011394041e-15 
   36       1.605734662587e-10       5.643929762575e-15       2.541075582774e-13       4.854303560289e-17       9.803775144310e-11       1.179192386716e-11      -9.338078396703e-15 
   37       1.631074333525e-10       6.194060532494e-15       2.495064565365e-13       5.127714884999e-17       9.275404114324e-11       1.119644636226e-11      -8.584606082936e-15 
   38       1.656749525558e-10       6.778571042154e-15       2.433713924229e-13       5.408803333060e-17       8.785294239832e-11       1.064338515318e-11      -7.643444487528e-15 
   39       1.682782260589e-10       7.398038309120e-15       2.357428805816e-13       5.697582949115e-17       8.331886131249e-11       1.013079726321e-11      -6.746108728273e-15 
   40       1.709137678798e-10       8.052942621468e-15       2.266835061918e-13       5.994067750838e-17       7.910850096943e-11       9.653551449866e-12      -6.174276666844e-15 
   41       1.735748842702e-10       8.743757888078e-15       2.162521545151e-13       6.298270595981e-17       7.516592520050e-11       9.205141226049e-12      -6.172659339666e-15 
   42       1.762615168036e-10       9.471272796906e-15       2.044134763997e-13       6.610199327718e-17       7.147945496440e-11       8.784501171299e-12      -6.646039021187e-15 
   43       1.789726017753e-10       1.023636388844e-14       1.911011447891e-13       6.929859383036e-17       6.803922751961e-11       8.390942252109e-12      -7.368830504081e-15 
   44       1.817028944373e-10       1.103990859435e-14       1.762418374078e-13       7.257254750651e-17       6.482012347775e-11       8.022121207454e-12      -8.063758611351e-15 
   45       1.844462952891e-10       1.188269900408e-14       1.597626542924e-13       7.592387170336e-17       6.179071872968e-11       7.674935995026e-12      -8.472455506591e-15 
   46       1.872079190974e-10       1.276515128646e-14       1.416173349764e-13       7.935253619676e-17       5.894619224655e-11       7.348846917781e-12      -8.599714631873e-15 
   47       1.899949812667e-10       1.368751021633e-14       1.217669262267e-13       8.285847950199e-17       5.628319148796e-11       7.043320599719e-12      -8.536994153694e-15 
   48       1.928132353765e-10       1.464992395301e-14       1.001723865584e-13       8.644161436113e-17       5.378990851355e-11       6.756814139313e-12      -8.396183107679e-15 
   49       1.956668030980e-10       1.565243952819e-14       7.679448544666e-14       9.010182658527e-17       5.144545152412e-11       6.486700482621e-12      -8.310750303632e-15 
   50       1.985579335259e-10       1.669507639360e-14       5.159657157331e-14       9.383898004961e-17       4.922612594989e-11       6.230059217778e-12      -8.401837968398e-15 
   51       2.014865987534e-10       1.777808106764e-14       2.455399723560e-14       9.765293596341e-17       4.712774568756e-11       5.986475147132e-12      -8.663027180490e-15 
   52       2.044504945209e-10       1.890173381021e-14      -4.352922131733e-15       1.015435368293e-16       4.514829166684e-11       5.755870358723e-12      -9.046279268112e-15 
   53       2.074449319159e-10       2.006627578529e-14      -3.514151999405e-14       1.055105998998e-16       4.328123550586e-11       5.537672101130e-12      -9.493768378987e-15 
   54       2.104626639673e-10       2.127190822223e-14      -6.782674449155e-14       1.095539163093e-16       4.151523620763e-11       5.330778882297e-12      -9.937380726008e-15 
   55       2.134965244559e-10       2.251875049412e-14      -1.024186692158e-13       1.136732756562e-16       3.983759077420e-11       5.133926214753e-12      -1.031321037123e-14 
   56       2.165485092513e-10       2.380670407903e-14      -1.389143798085e-13       1.178685488912e-16       3.824628470543e-11       4.946967914432e-12      -1.061041071586e-14 
   57       2.196226472414e-10       2.513555333476e-14      -1.773040118717e-13       1.221396244998e-16       3.674040384272e-11       4.769853723408e-12      -1.083360165858e-14 
   58       2.227223233260e-10       2.650500123455e-14      -2.175729023279e-13       1.264863849755e-16       3.531648910351e-11       4.602239619607e-12      -1.098901802683e-14 
   59       2.258502145789e-10       2.791466692773e-14      -2.597014595461e-13       1.309087069442e-16       3.396837943421e-11       4.443469486266e-12      -1.108459310321e-14 
   60       2.290082264097e-10       2.936408330037e-14      -3.036650334670e-13       1.354064612865e-16       3.268705476311e-11       4.292556781391e-12      -1.113004215181e-14 
   61       2.321977287745e-10       3.085270693081e-14      -3.494399386492e-13       1.399795422835e-16       3.146313491763e-11       4.148459925615e-12      -1.113511184750e-14 
   62       2.354204711860e-10       3.237995608612e-14      -3.970233970385e-13       1.446279624186e-16       3.029538711640e-11       4.011022167751e-12      -1.110368043631e-14 
   63       2.386777607402e-10       3.394517696447e-14      -4.464178614743e-13       1.493517791702e-16       2.918385808285e-11       3.880211114367e-12      -1.103847548495e-14 
   64       2.419701269487e-10       3.554763004735e-14      -4.976253218308e-13       1.541510688915e-16       2.812731525354e-11       3.755834794559e-12      -1.094281595082e-14 
   65       2.452972674214e-10       3.718648805343e-14      -5.506473703697e-13       1.590259278543e-16       2.712317400285e-11       3.637532648867e-12      -1.082063751387e-14 
   66       2.486579935481e-10       3.886083389254e-14      -6.054852670932e-13       1.639764732937e-16       2.616742486766e-11       3.524766518202e-12      -1.067651790846e-14 
   67       2.520501761814e-10       4.056965861961e-14      -6.621400050973e-13       1.690028444515e-16       2.525456077199e-11       3.416811632762e-12      -1.051570225518e-14 
   68       2.554716713849e-10       4.231191445320e-14      -7.206072611805e-13       1.741051944756e-16       2.437904416241e-11       3.312950625915e-12      -1.034348795440e-14 
   69       2.589234369203e-10       4.408669087996e-14      -7.808609134957e-13       1.792836618756e-16       2.354021629671e-11       3.213121368567e-12      -1.016317801178e-14 
   70       2.624069525655e-10       4.589307072186e-14      -8.428662861992e-13       1.845383951323e-16       2.273825654016e-11       3.117384818326e-12      -9.977756604411e-15 
   71       2.659232671933e-10       4.773007760249e-14      -9.065849044083e-13       1.898695621273e-16       2.197269767709e-11       3.025729858947e-12      -9.790501617625e-15 
   72       2.694729695193e-10       4.959667530928e-14      -9.719744287430e-13       1.952773509533e-16       2.124239251950e-11       2.938069481702e-12      -9.604993597356e-15 
   73       2.730561588500e-10       5.149176715572e-14      -1.038988589867e-12       2.007619707241e-16       2.054548051561e-11       2.854236966759e-12      -9.425124702491e-15 
   74       2.766724158301e-10       5.341419534362e-14      -1.107577123027e-12       2.063236523851e-16       1.987935435846e-11       2.773982064556e-12      -9.255107657225e-15 
   75       2.803207731910e-10       5.536274032531e-14      -1.177685702598e-12       2.119626495238e-16       1.924062659449e-11       2.696967177176e-12      -9.099484703413e-15 
   76       2.840002371986e-10       5.733611482521e-14      -1.249260723457e-12       2.176792031042e-16       1.862596823853e-11       2.622852424949e-12      -8.962026903972e-15 
   77       2.877115264399e-10       5.933294605558e-14      -1.322264796425e-12       2.234734264565e-16       1.803487498217e-11       2.551577196193e-12      -8.842180538070e-15 
   78       2.914555984406e-10       6.135178908395e-14      -1.396663972697e-12       2.293454006895e-16       1.746734709493e-11       2.483123240293e-12      -8.737985942889e-15 
   79       2.952331094246e-10       6.339113115092e-14      -1.472423181062e-12       2.352952089749e-16       1.692304690865e-11       2.417428373546e-12      -8.647116095821e-15 
   80       2.990443963543e-10       6.544939092290e-14      -1.549506261832e-12       2.413229366179e-16       1.640128330720e-11       2.354384483203e-12      -8.566862812571e-15 
   81       3.028894589712e-10       6.752491774482e-14      -1.627876000773e-12       2.474286711272e-16       1.590099621629e-11       2.293835531505e-12      -8.494122945258e-15 
   82       3.067679418364e-10       6.961599089281e-14      -1.707494163033e-12       2.536125022864e-16       1.542074109323e-11       2.235575559727e-12      -8.425384580521e-15 
   83       3.106791163705e-10       7.172081882700e-14      -1.788321527070e-12       2.598745222237e-16       1.495867341669e-11       2.179346692208e-12      -8.356713237622e-15 
   84       3.146222339536e-10       7.383758014163e-14      -1.870315764844e-12       2.662148400673e-16       1.451299552491e-11       2.124902806363e-12      -8.284658017953e-15 
   85       3.185976918192e-10       7.596455585268e-14      -1.953424604274e-12       2.726336285464e-16       1.408341621705e-11       2.072217042399e-12      -8.209172886199e-15 
   86       3.226060284114e-10       7.810001777262e-14      -2.037591590200e-12       2.791310852810e-16       1.366990581061e-11       2.021305194764e-12      -8.131156622306e-15 
   87       3.266475579603e-10       8.024218871700e-14      -2.122758135103e-12       2.857074191951e-16       1.327224768145e-11       1.972162225616e-12      -8.051577563689e-15 
   88       3.307223587583e-10       8.238924245795e-14      -2.208863516841e-12       2.923628508324e-16       1.289003052408e-11       1.924761372497e-12      -7.971475264704e-15 
   89       3.348302614372e-10       8.453930367773e-14      -2.295844876377e-12       2.990976126719e-16       1.252264061203e-11       1.879053255998e-12      -7.891962156122e-15 
   90       3.389708372449e-10       8.669044792221e-14      -2.383637215515e-12       3.059119494438e-16       1.216925405818e-11       1.834964987427e-12      -7.814225204594e-15 
   91       3.431433863218e-10       8.884070155441e-14      -2.472173394629e-12       3.128061184447e-16       1.182882907506e-11       1.792399276482e-12      -7.739527572130e-15 
   92       3.473469259779e-10       9.098804170801e-14      -2.561384130396e-12       3.197803898536e-16       1.150009823523e-11       1.751233538912e-12      -7.669210275569e-15 
   93       3.515804942443e-10       9.313043653989e-14      -2.651199644588e-12       3.268350883084e-16       1.118186823980e-11       1.711349954426e-12      -7.604357941413e-15 
   94       3.558441382182e-10       9.526597301389e-14      -2.741554899029e-12       3.339707241036e-16       1.087398760791e-11       1.672732749816e-12      -7.544734961367e-15 
   95       3.601380533816e-10       9.739274833923e-14      -2.832385147445e-12       3.411878824004e-16       1.057651089520e-11       1.635383965472e-12      -7.489691658216e-15 
   96       3.644622742742e-10       9.950883188381e-14      -2.923624374683e-12       3.484871845936e-16       1.028940068211e-11       1.599293347611e-12      -7.438483022055e-15 
   97       3.688166670981e-10       1.016122656809e-13      -3.015205317103e-12       3.558692891939e-16       1.001252405531e-11       1.564437880800e-12      -7.390265758853e-15 
   98       3.732009223219e-10       1.037010649357e-13      -3.107059482979e-12       3.633348927097e-16       9.745649089207e-12       1.530781320470e-12      -7.344095339019e-15 
   99       3.776145472853e-10       1.057732185325e-13      -3.199117172892e-12       3.708847305295e-16       9.488441327362e-12       1.498273725433e-12      -7.298923045963e-15 
  100       3.820568588037e-10       1.078266895406e-13      -3.291307500127e-12       3.785195778036e-16       9.240460263931e-12       1.466850990402e-12      -7.253593024663e-15 
  101       3.865269757721e-10       1.098594157219e-13      -3.383558411068e-12       3.862402503260e-16       9.001155825126e-12       1.436434378503e-12      -7.206839330224e-15 
  102       3.910238117702e-10       1.118693100367e-13      -3.475796705592e-12       3.940476054168e-16       8.769864850661e-12       1.406930053799e-12      -7.157282976447e-15 
  103       3.955460676662e-10       1.138542611511e-13      -3.567948057469e-12       4.019425428041e-16       8.545807575198e-12       1.378228613803e-12      -7.103428984391e-15 
  104       4.000924964561e-10       1.158121844041e-13      -3.659937549414e-12       4.099259376374e-16       8.328263855773e-12       1.350230504096e-12      -7.044025500512e-15 
  105       4.046627544528e-10       1.177411814593e-13      -3.751691316624e-12       4.179984273240e-16       8.117136544387e-12       1.322927179019e-12      -6.979202756969e-15 
  106       4.092566518283e-10       1.196394032652e-13      -3.843135164320e-12       4.261605974075e-16       7.912458013540e-12       1.296330084122e-12      -6.909483182184e-15 
  107       4.138738862955e-10       1.215050025682e-13      -3.934194098646e-12       4.344130469998e-16       7.714215681475e-12       1.270445572250e-12      -6.835434085427e-15 
