# dimensionless total lensed [l(l+1)/2pi] C_l's
# for l=2 to 5500, i.e. number of multipoles equal to 5499
#
# -> if you prefer output in CAMB/HealPix/LensPix units/order, set 'format' to 'camb' in input file
# -> if you don't want to see such a header, set 'headers' to 'no' in input file
# -> for CMB lensing (phi), these are C_l^phi-phi for the lensing potential.
#    Remember the conversion factors:
#    C_l^dd (deflection) = l(l+1) C_l^phi-phi
#    C_l^gg (shear/convergence) = 1/4 (l(l+1))^2 C_l^phi-phi
#
# 1:l     2:TT                     3:EE                     4:TE                     5:BB                     6:phiphi                 7:TPhi                   8:Ephi               
    2       1.414447597423e-10       4.228593800884e-15       3.514914012591e-13       2.258522790061e-19       8.015229617158e-09       4.690365302028e-10      -1.855764695354e-12 
    3       1.332396693278e-10       5.369692518480e-15       3.959070572781e-13       4.518184945294e-19       5.012609635675e-09       3.324526949225e-10      -1.395750618120e-12 
    4       1.256562285579e-10       4.591529830609e-15       3.696586233176e-13       7.532808732323e-19       3.496598434326e-09       2.512049267162e-10      -9.050163582267e-13 
    5       1.200054599172e-10       3.027214804696e-15       3.140923048785e-13       1.130382699198e-18       2.612603159967e-09       1.980403215772e-10      -4.952223928751e-13 
    6       1.161119823801e-10       1.677793491379e-15       2.523572279888e-13       1.583295925706e-18       2.040970741383e-09       1.609219233195e-10      -1.962398026038e-13 
    7       1.136142308253e-10       9.083726215383e-16       1.977522873858e-13       2.112216814076e-18       1.645340233164e-09       1.337984745113e-10      -8.354087463932e-15 
    8       1.120855408003e-10       5.937576585769e-16       1.560361340967e-13       2.717361085071e-18       1.358765779706e-09       1.132609509452e-10       8.480906058389e-14 
    9       1.113203255870e-10       4.796190586159e-16       1.283519035968e-13       3.398958765917e-18       1.144075425484e-09       9.728070442604e-11       1.078959716015e-13 
   10       1.111245045528e-10       4.076730469857e-16       1.131811829926e-13       4.157248925785e-18       9.784725949401e-10       8.460485083131e-11       8.773744738878e-14 
   11       1.113316154544e-10       3.425518504878e-16       1.078183981369e-13       4.992474494416e-18       8.242574510513e-10       7.463701399718e-11       4.891460875069e-14 
   12       1.119142207280e-10       3.007929131697e-16       1.092507359246e-13       5.904877352419e-18       7.202673418197e-10       6.613028490073e-11       9.204321361710e-15 
   13       1.127301512769e-10       2.912541705528e-16       1.146932939497e-13       6.894693867903e-18       6.348939634828e-10       5.899553902104e-11      -2.016764583740e-14 
   14       1.137144331464e-10       3.046952435430e-16       1.221329655709e-13       7.962151033080e-18       5.638482015818e-10       5.286115829002e-11      -3.509275765313e-14 
   15       1.148928251574e-10       3.300772004947e-16       1.303650729610e-13       9.107463327224e-18       5.040424425601e-10       4.768508227671e-11      -3.657082427979e-14 
   16       1.162384367633e-10       3.662069943330e-16       1.386867024556e-13       1.033083039997e-17       4.531898032907e-10       4.327748485600e-11      -2.901407521785e-14 
   17       1.176701273376e-10       4.189504011754e-16       1.470222268010e-13       1.163243563289e-17       4.095627343181e-10       3.943126871667e-11      -1.787904687242e-14 
   18       1.192083820346e-10       4.929130360496e-16       1.555876065578e-13       1.301244517412e-17       3.716920110112e-10       3.602009520442e-11      -7.924564899199e-15 
   19       1.208625469617e-10       5.880295155452e-16       1.645851815653e-13       1.447101039924e-17       3.389793165455e-10       3.302107026309e-11      -1.451759469954e-15 
   20       1.225727661062e-10       7.021577940054e-16       1.741594812854e-13       1.600826442871e-17       3.101656327911e-10       3.036746152562e-11       2.195844220803e-16 
   21       1.243512727463e-10       8.348263642743e-16       1.842282184614e-13       1.762433023545e-17       2.847992548927e-10       2.804295905465e-11      -2.108444400913e-15 
   22       1.262008001039e-10       9.858022415567e-16       1.945630753838e-13       1.931931658422e-17       2.622739475622e-10       2.600388857393e-11      -6.516291693039e-15 
   23       1.281146665878e-10       1.155155716250e-15       2.048648033066e-13       2.109332775236e-17       2.422802798721e-10       2.419593961980e-11      -1.126097409706e-14 
   24       1.300632982832e-10       1.342919445876e-15       2.147553093804e-13       2.294645942973e-17       2.243563443151e-10       2.253967027335e-11      -1.459426311770e-14 
   25       1.320518634108e-10       1.549403315586e-15       2.238760789524e-13       2.487881003123e-17       2.082918942934e-10       2.101561517876e-11      -1.593253503097e-14 
   26       1.340821845481e-10       1.775226788616e-15       2.319011025762e-13       2.689047586099e-17       1.937969150418e-10       1.961321278799e-11      -1.522421568132e-14 
   27       1.361607463090e-10       2.022427993600e-15       2.388168961014e-13       2.898156083574e-17       1.806979056396e-10       1.834370563512e-11      -1.311115598139e-14 
   28       1.382848817058e-10       2.293465176665e-15       2.447256014472e-13       3.115217309240e-17       1.687693040767e-10       1.721326682770e-11      -1.053758929606e-14 
   29       1.404576702793e-10       2.589746148033e-15       2.496812894028e-13       3.340243587503e-17       1.579501746177e-10       1.620720723755e-11      -8.124769567211e-15 
   30       1.426702164959e-10       2.912329028961e-15       2.537484339500e-13       3.573248044669e-17       1.481242212290e-10       1.528977868905e-11      -6.498967898242e-15 
   31       1.449032067871e-10       3.262206154480e-15       2.569922410888e-13       3.814244522432e-17       1.390909404669e-10       1.441830290077e-11      -6.217826063520e-15 
   32       1.471610126870e-10       3.640287248509e-15       2.593562609648e-13       4.063248211310e-17       1.308038357292e-10       1.359555850351e-11      -7.020510935990e-15 
   33       1.494477708839e-10       4.047396602432e-15       2.607379370865e-13       4.320275428958e-17       1.232045788328e-10       1.283572732969e-11      -8.280994330014e-15 
   34       1.517607080735e-10       4.484313069522e-15       2.610213190243e-13       4.585343331595e-17       1.161871199293e-10       1.214772019688e-11      -9.330791617555e-15 
   35       1.541020524847e-10       4.951921636332e-15       2.600858779853e-13       4.858469106174e-17       1.097155922957e-10       1.152565890445e-11      -9.957209644326e-15 
   36       1.564695602917e-10       5.451107000774e-15       2.577986949610e-13       5.139670645782e-17       1.037380575778e-10       1.095405612964e-11      -1.007324514533e-14 
   37       1.588569833884e-10       5.982704199014e-15       2.540378037830e-13       5.428966004442e-17       9.817670802848e-11       1.041512388290e-11      -9.632141675817e-15 
   38       1.612696210619e-10       6.547478242588e-15       2.487842426407e-13       5.726370513936e-17       9.301719037204e-11       9.907512412967e-12      -8.784660164966e-15 
   39       1.637127653045e-10       7.146131241588e-15       2.420609752455e-13       6.031898774473e-17       8.824316520194e-11       9.433162420218e-12      -7.777966644951e-15 
   40       1.661868491876e-10       7.779302730890e-15       2.339096792028e-13       6.345565440121e-17       8.380913768238e-11       8.992042447368e-12      -6.918414799111e-15 
   41       1.686890834034e-10       8.447599833767e-15       2.243734102802e-13       6.667383958313e-17       7.965631167870e-11       8.582449321402e-12      -6.490930719570e-15 
   42       1.712203012832e-10       9.151709188215e-15       2.134351252989e-13       6.997362271076e-17       7.577247325052e-11       8.202489396621e-12      -6.476486516604e-15 
   43       1.737794355821e-10       9.892314716617e-15       2.010610247061e-13       7.335505731071e-17       7.214732045403e-11       7.848755825363e-12      -6.749039322323e-15 
   44       1.763611537561e-10       1.067006497746e-14       1.872171272002e-13       7.681818175186e-17       6.875449316608e-11       7.515721883058e-12      -7.150028548474e-15 
   45       1.789588836754e-10       1.148555061284e-14       1.718663520864e-13       8.036301017624e-17       6.556099015517e-11       7.197453820826e-12      -7.523576371288e-15 
   46       1.815758868032e-10       1.233923258130e-14       1.549590948769e-13       8.398950390333e-17       6.256178996895e-11       6.893733303020e-12      -7.839383943666e-15 
   47       1.842168332685e-10       1.323148963224e-14       1.364395680281e-13       8.769759014509e-17       5.975340580695e-11       6.605495916035e-12      -8.103150715893e-15 
   48       1.868844866515e-10       1.416263453167e-14       1.162480102344e-13       9.148716832275e-17       5.712344347296e-11       6.333069528431e-12      -8.322675867055e-15 
   49       1.895795113699e-10       1.513291119149e-14       9.432037095194e-14       9.535810880671e-17       5.464993898701e-11       6.076123671286e-12      -8.507987693025e-15 
   50       1.923013126306e-10       1.614250146992e-14       7.059879917878e-14       9.931025800352e-17       5.230797365905e-11       5.833902923989e-12      -8.670640670936e-15 
   51       1.950512719309e-10       1.719155440866e-14       4.506719811006e-14       1.033434581679e-16       5.009317287372e-11       5.606119192591e-12      -8.821081533164e-15 
   52       1.978300568535e-10       1.828015996969e-14       1.772477607209e-14       1.074575307905e-16       4.800344080683e-11       5.392214131181e-12      -8.970791898950e-15 
   53       2.006365246550e-10       1.940833769955e-14      -1.142372585592e-14       1.116522697820e-16       4.603192811802e-11       5.191059933966e-12      -9.133146190240e-15 
   54       2.034675782443e-10       2.057603431375e-14      -4.236784088248e-14       1.159274405121e-16       4.416671203153e-11       5.000922080599e-12      -9.323501851495e-15 
   55       2.063198027750e-10       2.178316198507e-14      -7.509649280655e-14       1.202828063598e-16       4.239443299755e-11       4.819946966922e-12      -9.554045302141e-15 
   56       2.091951814655e-10       2.302972988082e-14      -1.096152753570e-13       1.247182182901e-16       4.071299551991e-11       4.647852000484e-12      -9.816623749258e-15 
   57       2.120965474458e-10       2.431574107117e-14      -1.459331274288e-13       1.292335458462e-16       3.912146212303e-11       4.484590106539e-12      -1.009580645568e-14 
   58       2.150258545251e-10       2.564115387659e-14      -1.840574135006e-13       1.338286516957e-16       3.761621104840e-11       4.329845189014e-12      -1.037364371990e-14 
   59       2.179841025445e-10       2.700588103812e-14      -2.239939375307e-13       1.385033917406e-16       3.619077048783e-11       4.183015325914e-12      -1.062955277381e-14 
   60       2.209712627293e-10       2.840978888767e-14      -2.657469568511e-13       1.432576152284e-16       3.483565281675e-11       4.043195964721e-12      -1.084020368034e-14 
   61       2.239869003685e-10       2.985262496385e-14      -3.093178039349e-13       1.480911964038e-16       3.354098852906e-11       3.909441459177e-12      -1.098462236607e-14 
   62       2.270323750516e-10       3.133378375033e-14      -3.547003587575e-13       1.530041375168e-16       3.230549392300e-11       3.781656296367e-12      -1.106109635218e-14 
   63       2.301090040830e-10       3.285248664330e-14      -4.018845801896e-13       1.579964892377e-16       3.112923131327e-11       3.659875005470e-12      -1.107387848920e-14 
   64       2.332173572530e-10       3.440784582729e-14      -4.508577787713e-13       1.630683222442e-16       3.001091154059e-11       3.543993653667e-12      -1.102835508601e-14 
   65       2.363572043166e-10       3.599886117512e-14      -5.016045864358e-13       1.682197283336e-16       2.894781703740e-11       3.433761873105e-12      -1.093109734333e-14 
   66       2.395274624715e-10       3.762441714779e-14      -5.541069262328e-13       1.734508215338e-16       2.793572489349e-11       3.328774887869e-12      -1.078991278714e-14 
   67       2.427261438358e-10       3.928327969442e-14      -6.083439820529e-13       1.787617392141e-16       2.696882992182e-11       3.228465540940e-12      -1.061389670215e-14 
   68       2.459512834625e-10       4.097421464217e-14      -6.642929606983e-13       1.841526331783e-16       2.604129433309e-11       3.132255149691e-12      -1.041235924548e-14 
   69       2.492040591378e-10       4.269637765201e-14      -7.219316250837e-13       1.896236383596e-16       2.515243335998e-11       3.040059389846e-12      -1.019123937508e-14 
   70       2.524862122880e-10       4.444899807218e-14      -7.812362222975e-13       1.951748997498e-16       2.430244699662e-11       2.951871064797e-12      -9.956053347490e-15 
   71       2.557990964243e-10       4.623126444640e-14      -8.421807268385e-13       2.008065826965e-16       2.349085165936e-11       2.867606505908e-12      -9.712977017309e-15 
   72       2.591436496985e-10       4.804232452096e-14      -9.047368306044e-13       2.065188737579e-16       2.271644485378e-11       2.787101661590e-12      -9.468868515698e-15 
   73       2.625203674587e-10       4.988128525176e-14      -9.688739328801e-13       2.123119815588e-16       2.197726984158e-11       2.710108186375e-12      -9.231290928833e-15 
   74       2.659292748053e-10       5.174721281145e-14      -1.034559130326e-12       2.181861376444e-16       2.127058030762e-11       2.636289529997e-12      -9.008534976383e-15 
   75       2.693698991466e-10       5.363913259649e-14      -1.101757206967e-12       2.241415973365e-16       2.059280502677e-11       2.565217026463e-12      -8.809641689972e-15 
   76       2.728416842219e-10       5.555597702182e-14      -1.170431167025e-12       2.301786011045e-16       1.994043388609e-11       2.496478028258e-12      -8.642305324714e-15 
   77       2.763453799973e-10       5.749641789859e-14      -1.240543967722e-12       2.362972486585e-16       1.931294058669e-11       2.430031719245e-12      -8.506090470153e-15 
   78       2.798818575411e-10       5.945900336059e-14      -1.312057085741e-12       2.424976033433e-16       1.871033119381e-11       2.365911382052e-12      -8.398013502377e-15 
   79       2.834516719476e-10       6.144220631855e-14      -1.384930003516e-12       2.487797296298e-16       1.813225388945e-11       2.304116521839e-12      -8.314532168588e-15 
   80       2.870550439456e-10       6.344442339660e-14      -1.459120210352e-12       2.551436931603e-16       1.757798253251e-11       2.244611252947e-12      -8.251524798029e-15 
   81       2.906918415067e-10       6.546397386868e-14      -1.534583203545e-12       2.615895607938e-16       1.704640021882e-11       2.187322685553e-12      -8.204269512919e-15 
   82       2.943615614539e-10       6.749909859496e-14      -1.611272489502e-12       2.681174006517e-16       1.653598284128e-11       2.132139312318e-12      -8.167423439380e-15 
   83       2.980633110699e-10       6.954795895828e-14      -1.689139584859e-12       2.747272821630e-16       1.604478264993e-11       2.078909395042e-12      -8.135001918370e-15 
   84       3.017961869238e-10       7.160870187478e-14      -1.768134504035e-12       2.814192919459e-16       1.557090133376e-11       2.027480333119e-12      -8.101499685855e-15 
   85       3.055605237952e-10       7.367966953847e-14      -1.848207312302e-12       2.881935843786e-16       1.511403538825e-11       1.977827801644e-12      -8.065513509405e-15 
   86       3.093568200379e-10       7.575922265955e-14      -1.929306833429e-12       2.950503395345e-16       1.467415798645e-11       1.929945163212e-12      -8.026684784562e-15 
   87       3.131853472271e-10       7.784567752793e-14      -2.011380195303e-12       3.019897483981e-16       1.425104414375e-11       1.883803478617e-12      -7.984609389149e-15 
   88       3.170461384445e-10       7.993730606020e-14      -2.094372839221e-12       3.090120131768e-16       1.384426250525e-11       1.839350582271e-12      -7.938836086952e-15 
   89       3.209389765617e-10       8.203233584651e-14      -2.178228529190e-12       3.161173476123e-16       1.345316713309e-11       1.796510157630e-12      -7.888864931420e-15 
   90       3.248633825254e-10       8.412895019753e-14      -2.262889361218e-12       3.233059772922e-16       1.307688929381e-11       1.755180812612e-12      -7.834145669352e-15 
   91       3.288186036412e-10       8.622528819129e-14      -2.348295772609e-12       3.305781399616e-16       1.271432924566e-11       1.715235155023e-12      -7.774076144590e-15 
   92       3.328036018582e-10       8.831944472018e-14      -2.434386551263e-12       3.379340858348e-16       1.236414802600e-11       1.676518867975e-12      -7.708000701710e-15 
   93       3.368173824959e-10       9.040949940701e-14      -2.521099401441e-12       3.453741234913e-16       1.202508491366e-11       1.638888636282e-12      -7.635474908310e-15 
   94       3.408600624259e-10       9.249360822621e-14      -2.608372718221e-12       3.528987647842e-16       1.169698227158e-11       1.602334458822e-12      -7.557108732752e-15 
   95       3.449319416311e-10       9.456992581335e-14      -2.696144098351e-12       3.605086024039e-16       1.137990037339e-11       1.566874108108e-12      -7.473847819067e-15 
   96       3.490331701300e-10       9.663657826099e-14      -2.784349824260e-12       3.682042671594e-16       1.107380177025e-11       1.532515532384e-12      -7.386720499544e-15 
   97       3.531637409344e-10       9.869166356192e-14      -2.872924880991e-12       3.759864289164e-16       1.077854754862e-11       1.499256464345e-12      -7.296839854133e-15 
   98       3.573234830067e-10       1.007332520523e-13      -2.961802973133e-12       3.838557975338e-16       1.049389358812e-11       1.467084029868e-12      -7.205405769847e-15 
   99       3.615120542176e-10       1.027593868550e-13      -3.050916541760e-12       3.918131238016e-16       1.021948681936e-11       1.435974356725e-12      -7.113707000166e-15 
  100       3.657289343037e-10       1.047680843225e-13      -3.140196781359e-12       3.998592003780e-16       9.954861481796e-12       1.405892183314e-12      -7.023123224438e-15 
  101       3.699734178249e-10       1.067573344805e-13      -3.229573656771e-12       4.079948627267e-16       9.699435381512e-12       1.376790467378e-12      -6.935127107286e-15 
  102       3.742446071223e-10       1.087251014708e-13      -3.318975920117e-12       4.162209900541e-16       9.452506149095e-12       1.348609994730e-12      -6.851286358010e-15 
  103       3.785414052753e-10       1.106693239946e-13      -3.408331127736e-12       4.245385062470e-16       9.213247497452e-12       1.321278987973e-12      -6.773265789986e-15 
  104       3.828627421231e-10       1.125879674134e-13      -3.497566388959e-12       4.329483079491e-16       8.980896396658e-12       1.294729497841e-12      -6.702433362685e-15 
  105       3.872083022692e-10       1.144791871121e-13      -3.586610691142e-12       4.414510357094e-16       8.755351454696e-12       1.268949941701e-12      -6.638613263137e-15 
  106       3.915778827481e-10       1.163411881331e-13      -3.675392921746e-12       4.500472735229e-16       8.536648769060e-12       1.243938965826e-12      -6.581167439124e-15 
  107       3.959711643165e-10       1.181721764877e-13      -3.763841189211e-12       4.587376190651e-16       8.324776603631e-12       1.219689092185e-12      -6.529374310284e-15 
