# Matter power spectrum P(k) at redshift z=0
# for k=9.0192e-06 to 20.5861 h/Mpc,
# number of wavenumbers equal to 855
#    1:k (h/Mpc)              2:P (Mpc/h)^3        
       9.019204976993e-06       7.372386229763e+01 
       2.013438014409e-05       1.599051309416e+02 
       3.127868234905e-05       2.445114383652e+02 
       4.247442557899e-05       3.283941153871e+02 
       5.374419929777e-05       4.120135328978e+02 
       6.511101857491e-05       4.956991403592e+02 
       7.659847783023e-05       5.797217057637e+02 
       8.823090974742e-05       6.643222795495e+02 
       1.000335509225e-04       7.497265772926e+02 
       1.120327158298e-04       8.361532365661e+02 
       1.242559807030e-04       9.238191530675e+02 
       1.367323789378e-04       1.012943312568e+03 
       1.494926096110e-04       1.103749794046e+03 
       1.625692606757e-04       1.196470275993e+03 
       1.759970483069e-04       1.291346318118e+03 
       1.898130737261e-04       1.388631448694e+03 
       2.040570985940e-04       1.488593220194e+03 
       2.187718396958e-04       1.591515207189e+03 
       2.340032831118e-04       1.697699017710e+03 
       2.498010173128e-04       1.807466304879e+03 
       2.662185835800e-04       1.921160779460e+03 
       2.833138407498e-04       2.039150199145e+03 
       3.011493394298e-04       2.161828296180e+03 
       3.197926984326e-04       2.289616595598e+03 
       3.393169731301e-04       2.422966031308e+03 
       3.598010016445e-04       2.562358275163e+03 
       3.813297102150e-04       2.708306608869e+03 
       4.039943536983e-04       2.861356201824e+03 
       4.278926610814e-04       3.022083558290e+03 
       4.531288493575e-04       3.191094880814e+03 
       4.798134626171e-04       3.369023078056e+03 
       5.080629875164e-04       3.556523045431e+03 
       5.379991925169e-04       3.754264954560e+03 
       5.697481379765e-04       3.962925115048e+03 
       6.034388091171e-04       4.183174270182e+03 
       6.392013360914e-04       4.415663084091e+03 
       6.771647865580e-04       4.661004883262e+03 
       7.174545473443e-04       4.919756071776e+03 
       7.601893524407e-04       5.192394776212e+03 
       8.054780621013e-04       5.479298946492e+03 
       8.534163469723e-04       5.780725249625e+03 
       9.040834742503e-04       6.096790538882e+03 
       9.575394207352e-04       6.427457406849e+03 
       1.013822541642e-03       6.772525282652e+03 
       1.072947998486e-03       7.131627479568e+03 
       1.134907093856e-03       7.504234548722e+03 
       1.199667581565e-03       7.889663008506e+03 
       1.237686565779e-03       8.114031157521e+03 
       1.267174929296e-03       8.287089461714e+03 
       1.337354422516e-03       8.695569395080e+03 
       1.410113927546e-03       9.114060489519e+03 
       1.485347088335e-03       9.541450343715e+03 
       1.562936719724e-03       9.976585783198e+03 
       1.642758176941e-03       1.041830165702e+04 
       1.724682519414e-03       1.086544491653e+04 
       1.808579336922e-03       1.131689227909e+04 
       1.894319158360e-03       1.177156336790e+04 
       1.981775410681e-03       1.222842952021e+04 
       2.070825933598e-03       1.268652292406e+04 
       2.161354082699e-03       1.314494458839e+04 
       2.253249470150e-03       1.360286981281e+04 
       2.346408399903e-03       1.405954894184e+04 
       2.440734055354e-03       1.451430104917e+04 
       2.536136493966e-03       1.496651189347e+04 
       2.632532497351e-03       1.541562696187e+04 
       2.729845318075e-03       1.586115351007e+04 
       2.828004357063e-03       1.630265363865e+04 
       2.926944798562e-03       1.673974675001e+04 
       3.026607223423e-03       1.717209490756e+04 
       3.126937216290e-03       1.759940670454e+04 
       3.227884977962e-03       1.802142165671e+04 
       3.329404950766e-03       1.843792003336e+04 
       3.431455462131e-03       1.884871526331e+04 
       3.533998389475e-03       1.925364837446e+04 
       3.636998848055e-03       1.965259060861e+04 
       3.740424902280e-03       2.004542703353e+04 
       3.844247300247e-03       2.043207189814e+04 
       3.948439230710e-03       2.081245136993e+04 
       4.052976101368e-03       2.118651615561e+04 
       4.157835337154e-03       2.155422230218e+04 
       4.262996197086e-03       2.191554648604e+04 
       4.368439608254e-03       2.227047472606e+04 
       4.474148015489e-03       2.261899784007e+04 
       4.580105245354e-03       2.296111780013e+04 
       4.686296383141e-03       2.329685448927e+04 
       4.792707661659e-03       2.362622347733e+04 
       4.899326360693e-03       2.394924890788e+04 
       5.006140716081e-03       2.426596431468e+04 
       5.113139837481e-03       2.457640685718e+04 
       5.220313633959e-03       2.488061827750e+04 
       5.327652746615e-03       2.517863854563e+04 
       5.435148487557e-03       2.547051762345e+04 
       5.542792784574e-03       2.575631333832e+04 
       5.650578130955e-03       2.603606611717e+04 
       5.758497539923e-03       2.630983950724e+04 
       5.866544503242e-03       2.657768981689e+04 
       5.974712953570e-03       2.683967195439e+04 
       6.082997230198e-03       2.709584733307e+04 
       6.191392047843e-03       2.734628350631e+04 
       6.299892468190e-03       2.759101934110e+04 
       6.408493873925e-03       2.783013947235e+04 
       6.517191945017e-03       2.806370584930e+04 
       6.625982637031e-03       2.829177446871e+04 
       6.734862161292e-03       2.851440615534e+04 
       6.843826966702e-03       2.873166809590e+04 
       6.952873723089e-03       2.894362436477e+04 
       7.061999305920e-03       2.915033737430e+04 
       7.171200782259e-03       2.935187472547e+04 
       7.280475397874e-03       2.954830213607e+04 
       7.389820565363e-03       2.973965681187e+04 
       7.499233853231e-03       2.992603145171e+04 
       7.608712975823e-03       3.010748788203e+04 
       7.718255784036e-03       3.028408063917e+04 
       7.827860256754e-03       3.045586404051e+04 
       7.937524492937e-03       3.062290460226e+04 
       8.047246704300e-03       3.078526501634e+04 
       8.157025208554e-03       3.094300480545e+04 
       8.266858423138e-03       3.109617417937e+04 
       8.376744859423e-03       3.124483975079e+04 
       8.486683117332e-03       3.138906472884e+04 
       8.596671880356e-03       3.152890488583e+04 
       8.706709910922e-03       3.166441316686e+04 
       8.816796046100e-03       3.179564845165e+04 
       8.926929193607e-03       3.192266723731e+04 
       9.037108328096e-03       3.204552129477e+04 
       9.147332487703e-03       3.216427353330e+04 
       9.257600770835e-03       3.227897657312e+04 
       9.367912333175e-03       3.238968178187e+04 
       9.478266384901e-03       3.249644178342e+04 
       9.588662188089e-03       3.259930211234e+04 
       9.699099054289e-03       3.269833963152e+04 
       9.809576342276e-03       3.279357785073e+04 
       9.920093455941e-03       3.288507725478e+04 
       1.003064984233e-02       3.297289361285e+04 
       1.014124498982e-02       3.305706588796e+04 
       1.025187842639e-02       3.313765916750e+04 
       1.036254971807e-02       3.321471401025e+04 
       1.047325846738e-02       3.328826655642e+04 
       1.058400431202e-02       3.335838666586e+04 
       1.069478692353e-02       3.342511106950e+04 
       1.080560600610e-02       3.348848866433e+04 
       1.091646129541e-02       3.354856937474e+04 
       1.102735255764e-02       3.360539261856e+04 
       1.113827958843e-02       3.365899930486e+04 
       1.124924221198e-02       3.370943851651e+04 
       1.136024028026e-02       3.375674956096e+04 
       1.147127367212e-02       3.380098289013e+04 
       1.158234229264e-02       3.384217516187e+04 
       1.169344607241e-02       3.388036884737e+04 
       1.180458496692e-02       3.391562065818e+04 
       1.191575895592e-02       3.394796931902e+04 
       1.202696804297e-02       3.397743364499e+04 
       1.213821225488e-02       3.400407528344e+04 
       1.224949164123e-02       3.402792624466e+04 
       1.236080627403e-02       3.404902789083e+04 
       1.237686565779e-02       3.405184710846e+04 
       1.247215624726e-02       3.406742240742e+04 
       1.258354167657e-02       3.408316082464e+04 
       1.269496269891e-02       3.409625210490e+04 
       1.280641947230e-02       3.410676212141e+04 
       1.291791217553e-02       3.411471614661e+04 
       1.302944100795e-02       3.412015580746e+04 
       1.314100618926e-02       3.412311004378e+04 
       1.325260795934e-02       3.412363687699e+04 
       1.336424657811e-02       3.412174601501e+04 
       1.347592232535e-02       3.411749144195e+04 
       1.358763550066e-02       3.411090428397e+04 
       1.369938642337e-02       3.410201292264e+04 
       1.381117543241e-02       3.409087080651e+04 
       1.392300288638e-02       3.407748398957e+04 
       1.403486916343e-02       3.406190849365e+04 
       1.414677466132e-02       3.404416871533e+04 
       1.425871979743e-02       3.402432189830e+04 
       1.437070500878e-02       3.400237790586e+04 
       1.448273075210e-02       3.397834891398e+04 
       1.459479750391e-02       3.395232773550e+04 
       1.470690576060e-02       3.392429601977e+04 
       1.481905603853e-02       3.389431062000e+04 
       1.493124887419e-02       3.386238552959e+04 
       1.504348482432e-02       3.382856512787e+04 
       1.515576446605e-02       3.379288358559e+04 
       1.526808839712e-02       3.375536173106e+04 
       1.538045723605e-02       3.371602393221e+04 
       1.549287162231e-02       3.367492802436e+04 
       1.560533221661e-02       3.363207895399e+04 
       1.571783970111e-02       3.358750303573e+04 
       1.583039477966e-02       3.354125092283e+04 
       1.594299817808e-02       3.349335090399e+04 
       1.605565064445e-02       3.344383192850e+04 
       1.616835294943e-02       3.339269904512e+04 
       1.628110588654e-02       3.333995617425e+04 
       1.639391027253e-02       3.328570669340e+04 
       1.650676694770e-02       3.322996755886e+04 
       1.661967677629e-02       3.317270812760e+04 
       1.673264064685e-02       3.311404195183e+04 
       1.684565947265e-02       3.305388080662e+04 
       1.695873419209e-02       3.299232616994e+04 
       1.707186576913e-02       3.292940263305e+04 
       1.718505519375e-02       3.286513089487e+04 
       1.729830348240e-02       3.279951382139e+04 
       1.741161167851e-02       3.273261184143e+04 
       1.752498085296e-02       3.266442342174e+04 
       1.763841210467e-02       3.259499357921e+04 
       1.775190656104e-02       3.252430927853e+04 
       1.786546537859e-02       3.245244860748e+04 
       1.797908974354e-02       3.237944480104e+04 
       1.809278087233e-02       3.230527333894e+04 
       1.820654001235e-02       3.222991843819e+04 
       1.832036844249e-02       3.215354228608e+04 
       1.843426747385e-02       3.207603102950e+04 
       1.854823845043e-02       3.199750603566e+04 
       1.866228274980e-02       3.191790187903e+04 
       1.877640178386e-02       3.183727998958e+04 
       1.889059699960e-02       3.175577965685e+04 
       1.900486987984e-02       3.167316830248e+04 
       1.911922194409e-02       3.158968887148e+04 
       1.923365474933e-02       3.150524680751e+04 
       1.934816989090e-02       3.141994002723e+04 
       1.946276900336e-02       3.133376194082e+04 
       1.957745376143e-02       3.124667377475e+04 
       1.969222588090e-02       3.115884257739e+04 
       1.980708711962e-02       3.107012172908e+04 
       1.992203927853e-02       3.098062051402e+04 
       2.003708420262e-02       3.089036310678e+04 
       2.015222378209e-02       3.079934193071e+04 
       2.026745995336e-02       3.070756000789e+04 
       2.038279470029e-02       3.061509697259e+04 
       2.049823005531e-02       3.052189761644e+04 
       2.061376810063e-02       3.042806235824e+04 
       2.072941096952e-02       3.033356104505e+04 
       2.084516084756e-02       3.023843030998e+04 
       2.096101997401e-02       3.014265490539e+04 
       2.107699064319e-02       3.004630023798e+04 
       2.119307520585e-02       2.994934158964e+04 
       2.130927607069e-02       2.985177138760e+04 
       2.142559570588e-02       2.975373199679e+04 
       2.154203664058e-02       2.965516389842e+04 
       2.165860146659e-02       2.955603268184e+04 
       2.177529284004e-02       2.945642515824e+04 
       2.189211348307e-02       2.935632549109e+04 
       2.200906618568e-02       2.925578119242e+04 
       2.212615380752e-02       2.915478835771e+04 
       2.224337927981e-02       2.905335551903e+04 
       2.236074560737e-02       2.895148677607e+04 
       2.247825587059e-02       2.884923835507e+04 
       2.259591322759e-02       2.874660019554e+04 
       2.271372091639e-02       2.864357930900e+04 
       2.283168225720e-02       2.854020185118e+04 
       2.294980065471e-02       2.843652983091e+04 
       2.306807960058e-02       2.833247211157e+04 
       2.318652267590e-02       2.822818747483e+04 
       2.330513355385e-02       2.812349839602e+04 
       2.342391600233e-02       2.801860804443e+04 
       2.354287388681e-02       2.791339397022e+04 
       2.366201117321e-02       2.780800137485e+04 
       2.378133193090e-02       2.770225834638e+04 
       2.390084033581e-02       2.759630649920e+04 
       2.402054067368e-02       2.749019029918e+04 
       2.414043734340e-02       2.738389908197e+04 
       2.426053486050e-02       2.727733088673e+04 
       2.438083786074e-02       2.717053216656e+04 
       2.450135110391e-02       2.706362940317e+04 
       2.462207947767e-02       2.695660300819e+04 
       2.474302800163e-02       2.684949911307e+04 
       2.486420183157e-02       2.674213548305e+04 
       2.498560626377e-02       2.663463333742e+04 
       2.510724673963e-02       2.652711726249e+04 
       2.522912885032e-02       2.641942134922e+04 
       2.535125834177e-02       2.631162650293e+04 
       2.547364111977e-02       2.620380259005e+04 
       2.559628325528e-02       2.609586853865e+04 
       2.571919099005e-02       2.598791900198e+04 
       2.584237074235e-02       2.587988870407e+04 
       2.596582911306e-02       2.577182847369e+04 
       2.608957289192e-02       2.566366737953e+04 
       2.621360906409e-02       2.555555848914e+04 
       2.633794481706e-02       2.544740185125e+04 
       2.646258754770e-02       2.533918519550e+04 
       2.658754486982e-02       2.523109806856e+04 
       2.671282462188e-02       2.512295691344e+04 
       2.683843487519e-02       2.501479472043e+04 
       2.696438394240e-02       2.490662854302e+04 
       2.709068038640e-02       2.479858230786e+04 
       2.721733302963e-02       2.469062053008e+04 
       2.734435096384e-02       2.458259751679e+04 
       2.747174356025e-02       2.447471478735e+04 
       2.759952048029e-02       2.436676531719e+04 
       2.772769168677e-02       2.425899573119e+04 
       2.785626745561e-02       2.415120569227e+04 
       2.798525838815e-02       2.404354286696e+04 
       2.811467542409e-02       2.393594860128e+04 
       2.824452985504e-02       2.382844601287e+04 
       2.837483333874e-02       2.372107517145e+04 
       2.850559791405e-02       2.361381497827e+04 
       2.863683601668e-02       2.350657649421e+04 
       2.876856049569e-02       2.339950349506e+04 
       2.890078463099e-02       2.329253303087e+04 
       2.903352215158e-02       2.318566649048e+04 
       2.916678725490e-02       2.307893625283e+04 
       2.930059462722e-02       2.297233449910e+04 
       2.943495946502e-02       2.286585148960e+04 
       2.956989749774e-02       2.275954003035e+04 
       2.970542501160e-02       2.265332842216e+04 
       2.984155887494e-02       2.254727395048e+04 
       2.997831656485e-02       2.244136895271e+04 
       3.011571619548e-02       2.233555059226e+04 
       3.025377654788e-02       2.222989515809e+04 
       3.039251710168e-02       2.212445236588e+04 
       3.053195806861e-02       2.201909966334e+04 
       3.067212042809e-02       2.191391077442e+04 
       3.081302596498e-02       2.180894383738e+04 
       3.095469730961e-02       2.170406806340e+04 
       3.109715798043e-02       2.159936504530e+04 
       3.124043242923e-02       2.149476649689e+04 
       3.138454608939e-02       2.139041393280e+04 
       3.152952542717e-02       2.128617916026e+04 
       3.167539799640e-02       2.118210474192e+04 
       3.182219249684e-02       2.107815076617e+04 
       3.196993883649e-02       2.097435783890e+04 
       3.211866819806e-02       2.087075713200e+04 
       3.226841311024e-02       2.076731139979e+04 
       3.241920752373e-02       2.066399118506e+04 
       3.257108689295e-02       2.056085051740e+04 
       3.272408826341e-02       2.045777559033e+04 
       3.287825036567e-02       2.035492399790e+04 
       3.303361371614e-02       2.025224030896e+04 
       3.319022072556e-02       2.014961355602e+04 
       3.334811581576e-02       2.004721446810e+04 
       3.350734554541e-02       1.994486800550e+04 
       3.366795874578e-02       1.984270447259e+04 
       3.383000666727e-02       1.974061847146e+04 
       3.399354313788e-02       1.963874330467e+04 
       3.415862473469e-02       1.953692373822e+04 
       3.432531096980e-02       1.943516814455e+04 
       3.449366449200e-02       1.933359514536e+04 
       3.466375130591e-02       1.923209365821e+04 
       3.483564101045e-02       1.913064489225e+04 
       3.500940705852e-02       1.902929230484e+04 
       3.518512704044e-02       1.892804028185e+04 
       3.536288299344e-02       1.882684065709e+04 
       3.554276174051e-02       1.872576149308e+04 
       3.572485526150e-02       1.862458109232e+04 
       3.590926110062e-02       1.852352597083e+04 
       3.609608281435e-02       1.842248415728e+04 
       3.628543046475e-02       1.832153230930e+04 
       3.647742116368e-02       1.822048562362e+04 
       3.667217967428e-02       1.811943727226e+04 
       3.686983907705e-02       1.801837526261e+04 
       3.707054150876e-02       1.791725648211e+04 
       3.727443898398e-02       1.781614008177e+04 
       3.748169431035e-02       1.771491756114e+04 
       3.769248211037e-02       1.761358521840e+04 
       3.790698996486e-02       1.751206969959e+04 
       3.812541969549e-02       1.741055403751e+04 
       3.834798880680e-02       1.730882084557e+04 
       3.857493211170e-02       1.720689594469e+04 
       3.880650356848e-02       1.710473638464e+04 
       3.904297836273e-02       1.700244251950e+04 
       3.928465527338e-02       1.689976092848e+04 
       3.953185936961e-02       1.679681857203e+04 
       3.978494509441e-02       1.669356121876e+04 
       4.004429980157e-02       1.658992056530e+04 
       4.031034782614e-02       1.648587525740e+04 
       4.058355518528e-02       1.638134521315e+04 
       4.086443502661e-02       1.627632359014e+04 
       4.115355396680e-02       1.617074105767e+04 
       4.145153949443e-02       1.606450257938e+04 
       4.175908865113e-02       1.595758781957e+04 
       4.207697825440e-02       1.584986579036e+04 
       4.240607698821e-02       1.574131728258e+04 
       4.274735976692e-02       1.563184949784e+04 
       4.310192487843e-02       1.552132162001e+04 
       4.347101454085e-02       1.540958249350e+04 
       4.385603966988e-02       1.529652096586e+04 
       4.425860986236e-02       1.518199108477e+04 
       4.468056986599e-02       1.506583081486e+04 
       4.512404414025e-02       1.494775854250e+04 
       4.559149153307e-02       1.482753919568e+04 
       4.608577261420e-02       1.470485520048e+04 
       4.661023282062e-02       1.457936713584e+04 
       4.716880525875e-02       1.445060682946e+04 
