# Matter power spectrum P(k) at redshift z=0
# for k=9.0192e-06 to 20.5861 h/Mpc,
# number of wavenumbers equal to 855
#    1:k (h/Mpc)              2:P (Mpc/h)^3        
       9.019204976993e-06       7.364108975289e+01 
       2.013438014409e-05       1.597259897983e+02 
       3.127868234905e-05       2.442385653739e+02 
       4.247442557899e-05       3.280296592886e+02 
       5.374419929777e-05       4.115596019821e+02 
       6.511101857491e-05       4.951579657063e+02 
       7.659847783023e-05       5.790957303532e+02 
       8.823090974742e-05       6.636142216372e+02 
       1.000335509225e-04       7.489394844172e+02 
       1.120327158298e-04       8.352905371164e+02 
       1.242559807030e-04       9.228847087689e+02 
       1.367323789378e-04       1.011941473631e+03 
       1.494926096110e-04       1.102685457849e+03 
       1.625692606757e-04       1.195348949641e+03 
       1.759970483069e-04       1.290174184682e+03 
       1.898130737261e-04       1.387415436472e+03 
       2.040570985940e-04       1.487341073703e+03 
       2.187718396958e-04       1.590235557885e+03 
       2.340032831118e-04       1.696401451456e+03 
       2.498010173128e-04       1.806161422015e+03 
       2.662185835800e-04       1.919860241851e+03 
       2.833138407498e-04       2.037866756842e+03 
       3.011493394298e-04       2.160575784274e+03 
       3.197926984326e-04       2.288409889633e+03 
       3.393169731301e-04       2.421820947398e+03 
       3.598010016445e-04       2.561291399062e+03 
       3.813297102150e-04       2.707335037318e+03 
       4.039943536983e-04       2.860497180310e+03 
       4.278926610814e-04       3.021354003212e+03 
       4.531288493575e-04       3.190510782481e+03 
       4.798134626171e-04       3.368598795663e+03 
       5.080629875164e-04       3.556270527737e+03 
       5.379991925169e-04       3.754192950912e+03 
       5.697481379765e-04       3.963038478901e+03 
       6.034388091171e-04       4.183473495516e+03 
       6.392013360914e-04       4.416144242455e+03 
       6.771647865580e-04       4.661660127406e+03 
       7.174545473443e-04       4.920574818093e+03 
       7.601893524407e-04       5.193365552663e+03 
       8.054780621013e-04       5.480411692518e+03 
       8.534163469723e-04       5.781973612698e+03 
       9.040834742503e-04       6.098173513831e+03 
       9.575394207352e-04       6.428979636448e+03 
       1.013822541642e-03       6.774195610133e+03 
       1.072947998486e-03       7.133455945589e+03 
       1.134907093856e-03       7.506228792526e+03 
       1.199667581565e-03       7.891825592241e+03 
       1.237686565779e-03       8.116288379518e+03 
       1.267174929296e-03       8.289417522643e+03 
       1.337354422516e-03       8.698057029092e+03 
       1.410113927546e-03       9.116702731090e+03 
       1.485347088335e-03       9.544246437004e+03 
       1.562936719724e-03       9.979539621485e+03 
       1.642758176941e-03       1.042141901370e+04 
       1.724682519414e-03       1.086872937939e+04 
       1.808579336922e-03       1.132034288778e+04 
       1.894319158360e-03       1.177517573326e+04 
       1.981775410681e-03       1.223219943058e+04 
       2.070825933598e-03       1.269044936097e+04 
       2.161354082699e-03       1.314902961084e+04 
       2.253249470150e-03       1.360711559504e+04 
       2.346408399903e-03       1.406395482382e+04 
       2.440734055354e-03       1.451886334127e+04 
       2.536136493966e-03       1.497122643810e+04 
       2.632532497351e-03       1.542049178339e+04 
       2.729845318075e-03       1.586616895120e+04 
       2.828004357063e-03       1.630782005697e+04 
       2.926944798562e-03       1.674506233499e+04 
       3.026607223423e-03       1.717755587394e+04 
       3.126937216290e-03       1.760500947617e+04 
       3.227884977962e-03       1.802716455875e+04 
       3.329404950766e-03       1.844380272577e+04 
       3.431455462131e-03       1.885473671617e+04 
       3.533998389475e-03       1.925980572572e+04 
       3.636998848055e-03       1.965888009558e+04 
       3.740424902280e-03       2.005184578862e+04 
       3.844247300247e-03       2.043861854146e+04 
       3.948439230710e-03       2.081912484798e+04 
       4.052976101368e-03       2.119331433375e+04 
       4.157835337154e-03       2.156114196709e+04 
       4.262996197086e-03       2.192258465740e+04 
       4.368439608254e-03       2.227762962887e+04 
       4.474148015489e-03       2.262626839614e+04 
       4.580105245354e-03       2.296850231801e+04 
       4.686296383141e-03       2.330435014284e+04 
       4.792707661659e-03       2.363382713584e+04 
       4.899326360693e-03       2.395695826581e+04 
       5.006140716081e-03       2.427377798315e+04 
       5.113139837481e-03       2.458432340246e+04 
       5.220313633959e-03       2.488863543715e+04 
       5.327652746615e-03       2.518675353044e+04 
       5.435148487557e-03       2.547872804314e+04 
       5.542792784574e-03       2.576461757391e+04 
       5.650578130955e-03       2.604446273079e+04 
       5.758497539923e-03       2.631832650965e+04 
       5.866544503242e-03       2.658626469860e+04 
       5.974712953570e-03       2.684833239558e+04 
       6.082997230198e-03       2.710459165853e+04 
       6.191392047843e-03       2.735511032764e+04 
       6.299892468190e-03       2.759992687160e+04 
       6.408493873925e-03       2.783912541826e+04 
       6.517191945017e-03       2.807276796317e+04 
       6.625982637031e-03       2.830091105661e+04 
       6.734862161292e-03       2.852361590117e+04 
       6.843826966702e-03       2.874094945655e+04 
       6.952873723089e-03       2.895297531698e+04 
       7.061999305920e-03       2.915975581595e+04 
       7.171200782259e-03       2.936135899254e+04 
       7.280475397874e-03       2.955785096933e+04 
       7.389820565363e-03       2.974926898184e+04 
       7.499233853231e-03       2.993570424157e+04 
       7.608712975823e-03       3.011721825639e+04 
       7.718255784036e-03       3.029386719368e+04 
       7.827860256754e-03       3.046570668728e+04 
       7.937524492937e-03       3.063280270792e+04 
       8.047246704300e-03       3.079521643208e+04 
       8.157025208554e-03       3.095300687122e+04 
       8.266858423138e-03       3.110622525427e+04 
       8.376744859423e-03       3.125493934912e+04 
       8.486683117332e-03       3.139921223304e+04 
       8.596671880356e-03       3.153909856883e+04 
       8.706709910922e-03       3.167465070155e+04 
       8.816796046100e-03       3.180592813634e+04 
       8.926929193607e-03       3.193298835026e+04 
       9.037108328096e-03       3.205588321163e+04 
       9.147332487703e-03       3.217467482282e+04 
       9.257600770835e-03       3.228941519393e+04 
       9.367912333175e-03       3.240015605351e+04 
       9.478266384901e-03       3.250695084645e+04 
       9.588662188089e-03       3.260984533622e+04 
       9.699099054289e-03       3.270891580394e+04 
       9.809576342276e-03       3.280418516795e+04 
       9.920093455941e-03       3.289571409860e+04 
       1.003064984233e-02       3.298355905130e+04 
       1.014124498982e-02       3.306775928695e+04 
       1.025187842639e-02       3.314837947636e+04 
       1.036254971807e-02       3.322545963591e+04 
       1.047325846738e-02       3.329903596053e+04 
       1.058400431202e-02       3.336917888463e+04 
       1.069478692353e-02       3.343592547207e+04 
       1.080560600610e-02       3.349932432716e+04 
       1.091646129541e-02       3.355942488418e+04 
       1.102735255764e-02       3.361626653356e+04 
       1.113827958843e-02       3.366989064944e+04 
       1.124924221198e-02       3.372034666470e+04 
       1.136024028026e-02       3.376767369050e+04 
       1.147127367212e-02       3.381192174152e+04 
       1.158234229264e-02       3.385312738843e+04 
       1.169344607241e-02       3.389133348478e+04 
       1.180458496692e-02       3.392659709241e+04 
       1.191575895592e-02       3.395895681687e+04 
       1.202696804297e-02       3.398843107609e+04 
       1.213821225488e-02       3.401508140042e+04 
       1.224949164123e-02       3.403894010781e+04 
       1.236080627403e-02       3.406004889565e+04 
       1.237686565779e-02       3.406286909550e+04 
       1.247215624726e-02       3.407844988956e+04 
       1.258354167657e-02       3.409419378117e+04 
       1.269496269891e-02       3.410728937527e+04 
       1.280641947230e-02       3.411780280396e+04 
       1.291791217553e-02       3.412575965343e+04 
       1.302944100795e-02       3.413120153494e+04 
       1.314100618926e-02       3.413415708665e+04 
       1.325260795934e-02       3.413468417586e+04 
       1.336424657811e-02       3.413279270079e+04 
       1.347592232535e-02       3.412853694936e+04 
       1.358763550066e-02       3.412194806237e+04 
       1.369938642337e-02       3.411305415895e+04 
       1.381117543241e-02       3.410190852612e+04 
       1.392300288638e-02       3.408851736706e+04 
       1.403486916343e-02       3.407293698710e+04 
       1.414677466132e-02       3.405519181936e+04 
       1.425871979743e-02       3.403533888901e+04 
       1.437070500878e-02       3.401338788474e+04 
       1.448273075210e-02       3.398935110017e+04 
       1.459479750391e-02       3.396332162317e+04 
       1.470690576060e-02       3.393528114222e+04 
       1.481905603853e-02       3.390528632235e+04 
       1.493124887419e-02       3.387335098742e+04 
       1.504348482432e-02       3.383951961929e+04 
       1.515576446605e-02       3.380382662462e+04 
       1.526808839712e-02       3.376629289426e+04 
       1.538045723605e-02       3.372694262338e+04 
       1.549287162231e-02       3.368583349844e+04 
       1.560533221661e-02       3.364297053590e+04 
       1.571783970111e-02       3.359838026434e+04 
       1.583039477966e-02       3.355211341626e+04 
       1.594299817808e-02       3.350419812976e+04 
       1.605565064445e-02       3.345466320443e+04 
       1.616835294943e-02       3.340351374455e+04 
       1.628110588654e-02       3.335075385996e+04 
       1.639391027253e-02       3.329648702619e+04 
       1.650676694770e-02       3.324073006390e+04 
       1.661967677629e-02       3.318345216946e+04 
       1.673264064685e-02       3.312476697597e+04 
       1.684565947265e-02       3.306458640230e+04 
       1.695873419209e-02       3.300301202362e+04 
       1.707186576913e-02       3.294006831167e+04 
       1.718505519375e-02       3.287577583151e+04 
       1.729830348240e-02       3.281013748751e+04 
       1.741161167851e-02       3.274321388711e+04 
       1.752498085296e-02       3.267500355715e+04 
       1.763841210467e-02       3.260555141307e+04 
       1.775190656104e-02       3.253484428488e+04 
       1.786546537859e-02       3.246296031944e+04 
       1.797908974354e-02       3.238993290987e+04 
       1.809278087233e-02       3.231573758343e+04 
       1.820654001235e-02       3.224035844379e+04 
       1.832036844249e-02       3.216395761093e+04 
       1.843426747385e-02       3.208642122842e+04 
       1.854823845043e-02       3.200787083903e+04 
       1.866228274980e-02       3.192824104470e+04 
       1.877640178386e-02       3.184759319295e+04 
       1.889059699960e-02       3.176606650963e+04 
       1.900486987984e-02       3.168342837596e+04 
       1.911922194409e-02       3.159992194234e+04 
       1.923365474933e-02       3.151545266262e+04 
       1.934816989090e-02       3.143011838600e+04 
       1.946276900336e-02       3.134391242311e+04 
       1.957745376143e-02       3.125679602658e+04 
       1.969222588090e-02       3.116893641669e+04 
       1.980708711962e-02       3.108018695729e+04 
       1.992203927853e-02       3.099065687114e+04 
       2.003708420262e-02       3.090037025480e+04 
       2.015222378209e-02       3.080931957381e+04 
       2.026745995336e-02       3.071750796015e+04 
       2.038279470029e-02       3.062501509361e+04 
       2.049823005531e-02       3.053178565231e+04 
       2.061376810063e-02       3.043792001485e+04 
       2.072941096952e-02       3.034338806973e+04 
       2.084516084756e-02       3.024822656218e+04 
       2.096101997401e-02       3.015242024607e+04 
       2.107699064319e-02       3.005603445521e+04 
       2.119307520585e-02       2.995904440468e+04 
       2.130927607069e-02       2.986144257835e+04 
       2.142559570588e-02       2.976337147726e+04 
       2.154203664058e-02       2.966477155552e+04 
       2.165860146659e-02       2.956560829928e+04 
       2.177529284004e-02       2.946596850501e+04 
       2.189211348307e-02       2.936583639785e+04 
       2.200906618568e-02       2.926525958296e+04 
       2.212615380752e-02       2.916423413152e+04 
       2.224337927981e-02       2.906276848987e+04 
       2.236074560737e-02       2.896086673460e+04 
       2.247825587059e-02       2.885858518351e+04 
       2.259591322759e-02       2.875591383561e+04 
       2.271372091639e-02       2.865285966571e+04 
       2.283168225720e-02       2.854944875668e+04 
       2.294980065471e-02       2.844574313307e+04 
       2.306807960058e-02       2.834165170636e+04 
       2.318652267590e-02       2.823733335338e+04 
       2.330513355385e-02       2.813261043867e+04 
       2.342391600233e-02       2.802768612709e+04 
       2.354287388681e-02       2.792243794679e+04 
       2.366201117321e-02       2.781701122300e+04 
       2.378133193090e-02       2.771123400967e+04 
       2.390084033581e-02       2.760524790181e+04 
       2.402054067368e-02       2.749909732710e+04 
       2.414043734340e-02       2.739277165637e+04 
       2.426053486050e-02       2.728616896563e+04 
       2.438083786074e-02       2.717933571840e+04 
       2.450135110391e-02       2.707239836688e+04 
       2.462207947767e-02       2.696533728767e+04 
       2.474302800163e-02       2.685819868350e+04 
       2.486420183157e-02       2.675080031419e+04 
       2.498560626377e-02       2.664326340751e+04 
       2.510724673963e-02       2.653571252343e+04 
       2.522912885032e-02       2.642798170033e+04 
       2.535125834177e-02       2.632015193521e+04 
       2.547364111977e-02       2.621229314493e+04 
       2.559628325528e-02       2.610432417834e+04 
       2.571919099005e-02       2.599633967017e+04 
       2.584237074235e-02       2.588827435431e+04 
       2.596582911306e-02       2.578017913788e+04 
       2.608957289192e-02       2.567198306036e+04 
       2.621360906409e-02       2.556383917626e+04 
       2.633794481706e-02       2.545564748292e+04 
       2.646258754770e-02       2.534739576060e+04 
       2.658754486982e-02       2.523927365687e+04 
       2.671282462188e-02       2.513109751613e+04 
       2.683843487519e-02       2.502290028624e+04 
       2.696438394240e-02       2.491469904553e+04 
       2.709068038640e-02       2.480661782017e+04 
       2.721733302963e-02       2.469862111512e+04 
       2.734435096384e-02       2.459056313236e+04 
       2.747174356025e-02       2.448264543584e+04 
       2.759952048029e-02       2.437466098467e+04 
       2.772769168677e-02       2.426685652000e+04 
       2.785626745561e-02       2.415903160079e+04 
       2.798525838815e-02       2.405133389395e+04 
       2.811467542409e-02       2.394370475129e+04 
       2.824452985504e-02       2.383616735191e+04 
       2.837483333874e-02       2.372876176864e+04 
       2.850559791405e-02       2.362146683980e+04 
       2.863683601668e-02       2.351419359323e+04 
       2.876856049569e-02       2.340708590572e+04 
       2.890078463099e-02       2.330008082398e+04 
       2.903352215158e-02       2.319317968668e+04 
       2.916678725490e-02       2.308641485634e+04 
       2.930059462722e-02       2.297977855593e+04 
       2.943495946502e-02       2.287326107796e+04 
       2.956989749774e-02       2.276691520758e+04 
       2.970542501160e-02       2.266066918114e+04 
       2.984155887494e-02       2.255458033422e+04 
       2.997831656485e-02       2.244864104696e+04 
       3.011571619548e-02       2.234278843680e+04 
       3.025377654788e-02       2.223709876944e+04 
       3.039251710168e-02       2.213162179771e+04 
       3.053195806861e-02       2.202623497906e+04 
       3.067212042809e-02       2.192101204365e+04 
       3.081302596498e-02       2.181601109834e+04 
       3.095469730961e-02       2.171110132788e+04 
       3.109715798043e-02       2.160636440199e+04 
       3.124043242923e-02       2.150173199637e+04 
       3.138454608939e-02       2.139734562170e+04 
       3.152952542717e-02       2.129307706092e+04 
       3.167539799640e-02       2.118896893975e+04 
       3.182219249684e-02       2.108498131249e+04 
       3.196993883649e-02       2.098115475115e+04 
       3.211866819806e-02       2.087752046401e+04 
       3.226841311024e-02       2.077404123702e+04 
       3.241920752373e-02       2.067068757028e+04 
       3.257108689295e-02       2.056751347293e+04 
       3.272408826341e-02       2.046440514257e+04 
       3.287825036567e-02       2.036152025311e+04 
       3.303361371614e-02       2.025880330725e+04 
       3.319022072556e-02       2.015614328577e+04 
       3.334811581576e-02       2.005371102639e+04 
       3.350734554541e-02       1.995133143073e+04 
       3.366795874578e-02       1.984913479264e+04 
       3.383000666727e-02       1.974701570233e+04 
       3.399354313788e-02       1.964510754937e+04 
       3.415862473469e-02       1.954325500740e+04 
       3.432531096980e-02       1.944146642773e+04 
       3.449366449200e-02       1.933986052506e+04 
       3.466375130591e-02       1.923832617498e+04 
       3.483564101045e-02       1.913684452925e+04 
       3.500940705852e-02       1.903545909710e+04 
       3.518512704044e-02       1.893417429266e+04 
       3.536288299344e-02       1.883294187726e+04 
       3.554276174051e-02       1.873182995059e+04 
       3.572485526150e-02       1.863061678869e+04 
       3.590926110062e-02       1.852952892833e+04 
       3.609608281435e-02       1.842845436212e+04 
       3.628543046475e-02       1.832746982513e+04 
       3.647742116368e-02       1.822639040352e+04 
       3.667217967428e-02       1.812530929794e+04 
       3.686983907705e-02       1.802421456423e+04 
       3.707054150876e-02       1.792306301938e+04 
       3.727443898398e-02       1.782191384707e+04 
       3.748169431035e-02       1.772065855133e+04 
       3.769248211037e-02       1.761929336558e+04 
       3.790698996486e-02       1.751774495702e+04 
       3.812541969549e-02       1.741619641828e+04 
       3.834798880680e-02       1.731443024792e+04 
       3.857493211170e-02       1.721247234045e+04 
       3.880650356848e-02       1.711027967434e+04 
       3.904297836273e-02       1.700795266505e+04 
       3.928465527338e-02       1.690523781638e+04 
       3.953185936961e-02       1.680226209242e+04 
       3.978494509441e-02       1.669897130169e+04 
       4.004429980157e-02       1.659529705249e+04 
       4.031034782614e-02       1.649121805029e+04 
       4.058355518528e-02       1.638665412446e+04 
       4.086443502661e-02       1.628159848844e+04 
       4.115355396680e-02       1.617598173422e+04 
       4.145153949443e-02       1.606970884887e+04 
       4.175908865113e-02       1.596275943414e+04 
       4.207697825440e-02       1.585500251777e+04 
       4.240607698821e-02       1.574641882798e+04 
       4.274735976692e-02       1.563691558182e+04 
       4.310192487843e-02       1.552635189582e+04 
       4.347101454085e-02       1.541457655468e+04 
       4.385603966988e-02       1.530147840422e+04 
       4.425860986236e-02       1.518691141723e+04 
       4.468056986599e-02       1.507071350173e+04 
       4.512404414025e-02       1.495260297201e+04 
       4.559149153307e-02       1.483234467881e+04 
       4.608577261420e-02       1.470962093706e+04 
       4.661023282062e-02       1.458409221427e+04 
       4.716880525875e-02       1.445529018813e+04 
