# dimensionless total lensed [l(l+1)/2pi] C_l's
# for l=2 to 2500, i.e. number of multipoles equal to 2499
#
# -> if you prefer output in CAMB/HealPix/LensPix units/order, set 'format' to 'camb' in input file
# -> if you don't want to see such a header, set 'headers' to 'no' in input file
# -> for CMB lensing (phi), these are C_l^phi-phi for the lensing potential.
#    Remember the conversion factors:
#    C_l^dd (deflection) = l(l+1) C_l^phi-phi
#    C_l^gg (shear/convergence) = 1/4 (l(l+1))^2 C_l^phi-phi
#
# 1:l     2:TT                     3:EE                     4:TE                     5:BB                     6:phiphi                 7:TPhi                   8:Ephi               
    2       1.403656779573e-10       5.182074344782e-15       3.893323975139e-13       2.394444734858e-19       8.249489524079e-09       4.631223685938e-10      -2.060912822669e-12 
    3       1.325127988341e-10       7.449308741411e-15       4.588493173194e-13       4.790111604339e-19       5.068354697030e-09       3.286565867064e-10      -1.668562959678e-12 
    4       1.250013268876e-10       7.284873224516e-15       4.472297332535e-13       7.986202983161e-19       3.523952998434e-09       2.490608087040e-10      -1.195040558742e-12 
    5       1.192816792488e-10       5.533520103667e-15       3.955168159972e-13       1.198425984381e-18       2.631029520961e-09       1.968216879822e-10      -7.627552475415e-13 
    6       1.152649359462e-10       3.466512491965e-15       3.292546705114e-13       1.678613481731e-18       2.055709982353e-09       1.602078834687e-10      -4.116856272228e-13 
    7       1.126305203656e-10       1.926430725754e-15       2.644135765274e-13       2.239394703385e-18       1.658890800985e-09       1.333115333290e-10      -1.550344309290e-13 
    8       1.109782830915e-10       1.107888571697e-15       2.094620730591e-13       2.881003163039e-18       1.371252579524e-09       1.128453637331e-10       9.781190016237e-15 
    9       1.101206997340e-10       7.946626028056e-16       1.680463651323e-13       3.603688569969e-18       1.154678797082e-09       9.688676935855e-11       9.527212644505e-14 
   10       1.098682367228e-10       6.895721914884e-16       1.406441991906e-13       4.407711256301e-18       9.867762848045e-10       8.421914306501e-11       1.197823152736e-13 
   11       1.100330123890e-10       6.125912081610e-16       1.258050006982e-13       5.293336628287e-18       8.307824108988e-10       7.427612819916e-11       1.037493265456e-13 
   12       1.105816346578e-10       5.247533366061e-16       1.208940041083e-13       6.260829829361e-18       7.258148830491e-10       6.578954812726e-11       6.690896738327e-14 
   13       1.113808705053e-10       4.554875402863e-16       1.228325039980e-13       7.310450791587e-18       6.396558142470e-10       5.868924264506e-11       2.473753962862e-14 
   14       1.123703117451e-10       4.297349307035e-16       1.289015729112e-13       8.442449834297e-18       5.679704020909e-10       5.266030022517e-11      -1.166046414156e-14 
   15       1.135555487462e-10       4.426647269710e-16       1.369580026749e-13       9.657063944856e-18       5.076395763530e-10       4.757720258072e-11      -3.606742843089e-14 
   16       1.148853053992e-10       4.741169229747e-16       1.454960921030e-13       1.095451384763e-17       4.563497616013e-10       4.322730827713e-11      -4.693789464513e-14 
   17       1.163370578863e-10       5.110332519859e-16       1.537221852777e-13       1.233500193447e-17       4.123565829553e-10       3.939832511633e-11      -4.617730146653e-14 
   18       1.178886546057e-10       5.562924386436e-16       1.613963651263e-13       1.379871068936e-17       3.741747831354e-10       3.602273716487e-11      -3.759216825485e-14 
   19       1.195427899669e-10       6.192665634000e-16       1.687167135909e-13       1.534580444664e-17       3.411992705177e-10       3.306364098285e-11      -2.504899496110e-14 
   20       1.212572493786e-10       7.098718399906e-16       1.760387039727e-13       1.697642553674e-17       3.121591601630e-10       3.041266758407e-11      -1.305622672349e-14 
   21       1.230416274536e-10       8.286269879285e-16       1.836664560140e-13       1.869070172714e-17       2.865978411224e-10       2.806967072777e-11      -4.042693222844e-15 
   22       1.248908625901e-10       9.719537674670e-16       1.918595129662e-13       2.048874181419e-17       2.639030242675e-10       2.602650465822e-11       4.267428553493e-16 
   23       1.268031802109e-10       1.137705309400e-15       2.006237997441e-13       2.237064513925e-17       2.437621942828e-10       2.423173461329e-11       5.117253964795e-16 
   24       1.287568373355e-10       1.323977954157e-15       2.098008915436e-13       2.433649713152e-17       2.257092777343e-10       2.259687157092e-11      -2.713555480818e-15 
   25       1.307507344711e-10       1.531276536355e-15       2.190414386385e-13       2.638638111233e-17       2.095316074095e-10       2.109408952732e-11      -7.817515240746e-15 
   26       1.327772734347e-10       1.760424340088e-15       2.278828628038e-13       2.852037289337e-17       1.949361429953e-10       1.970554072819e-11      -1.304686525604e-14 
   27       1.348458878375e-10       2.010390953592e-15       2.359627782159e-13       3.073855143131e-17       1.817479955649e-10       1.844532148600e-11      -1.709313333918e-14 
   28       1.369605800530e-10       2.279828453794e-15       2.429492347734e-13       3.304099524057e-17       1.697400272713e-10       1.732516129320e-11      -1.888667056075e-14 
   29       1.391250236883e-10       2.570230090456e-15       2.486884587617e-13       3.542779641078e-17       1.588505610302e-10       1.632957739995e-11      -1.849906416685e-14 
   30       1.413289987137e-10       2.884289728456e-15       2.530861674064e-13       3.789905103628e-17       1.489619913893e-10       1.541959408596e-11      -1.650178280732e-14 
   31       1.435521549722e-10       3.224845414699e-15       2.560898042989e-13       4.045485911196e-17       1.398719088495e-10       1.454960487237e-11      -1.362992769961e-14 
   32       1.457998097548e-10       3.593512615534e-15       2.577980528419e-13       4.309533739530e-17       1.315334003455e-10       1.372372199646e-11      -1.051297172811e-14 
   33       1.480780327033e-10       3.991550459406e-15       2.583992765811e-13       4.582061305851e-17       1.238877921168e-10       1.295931396580e-11      -7.866644602705e-15 
   34       1.503854520529e-10       4.420126919609e-15       2.580868617026e-13       4.863082128681e-17       1.168283577278e-10       1.226853886930e-11      -6.380235997998e-15 
   35       1.527212409509e-10       4.880023357884e-15       2.568466801123e-13       5.152610467402e-17       1.103188822482e-10       1.164591913571e-11      -6.042289192539e-15 
   36       1.550781374259e-10       5.371811390722e-15       2.545956996318e-13       5.450661541510e-17       1.043069144482e-10       1.107542099799e-11      -6.574686770306e-15 
   37       1.574455844852e-10       5.895985983297e-15       2.512350387525e-13       5.757251057134e-17       9.871396435431e-11       1.053862587940e-11      -7.635351815532e-15 
   38       1.598311196618e-10       6.453193008587e-15       2.466443007847e-13       6.072393167523e-17       9.352552006777e-11       1.003385562067e-11      -8.929661092417e-15 
   39       1.622449653429e-10       7.044064472774e-15       2.406830769554e-13       6.396101960200e-17       8.872510641254e-11       9.562750826885e-12      -1.012649195136e-14 
   40       1.646937190813e-10       7.669150759836e-15       2.331906767138e-13       6.728392072017e-17       8.426691007493e-11       9.124897648065e-12      -1.082258085467e-14 
   41       1.671800040688e-10       8.328966604534e-15       2.240196128707e-13       7.069277616231e-17       8.009173381687e-11       8.718214245161e-12      -1.066724329435e-14 
   42       1.697023829500e-10       9.024159825729e-15       2.131524930613e-13       7.418768414952e-17       7.618725703583e-11       8.340737203522e-12      -9.796161621870e-15 
   43       1.722546462998e-10       9.755388548650e-15       2.006208515832e-13       7.776872630347e-17       7.254308489813e-11       7.989083581249e-12      -8.531249221015e-15 
   44       1.748252607939e-10       1.052327287073e-14       1.864745599963e-13       8.143597761783e-17       6.913266546088e-11       7.657761905312e-12      -7.267937787634e-15 
   45       1.774021285026e-10       1.132837665263e-14       1.707674379670e-13       8.518949564891e-17       6.592276738496e-11       7.340883012290e-12      -6.384267088870e-15 
   46       1.799896217253e-10       1.217115067323e-14       1.535065615093e-13       8.902928481287e-17       6.290832250133e-11       7.038274016756e-12      -5.925403210808e-15 
   47       1.825958755680e-10       1.305196939533e-14       1.346895283534e-13       9.295532099689e-17       6.008581218835e-11       6.750923996261e-12      -5.832268339696e-15 
   48       1.852278748352e-10       1.397114319959e-14       1.143186730977e-13       9.696756036427e-17       5.744275907839e-11       6.479225427591e-12      -6.027579608019e-15 
   49       1.878913041136e-10       1.492891562672e-14       9.240119611597e-14       1.010659385004e-16       5.495706091029e-11       6.222924137675e-12      -6.414749035746e-15 
   50       1.905899404569e-10       1.592547289476e-14       6.893784594903e-14       1.052503692883e-16       5.260364422026e-11       5.981317147046e-12      -6.892921322013e-15 
   51       1.933239849058e-10       1.696098189451e-14       4.388504577715e-14       1.095207431564e-16       5.037810005841e-11       5.754025624048e-12      -7.409451449842e-15 
   52       1.960910189384e-10       1.803555774056e-14       1.718270943126e-14       1.138769268791e-16       4.827831244332e-11       5.540345227388e-12      -7.919770015023e-15 
   53       1.988862549129e-10       1.914925026930e-14      -1.123561063103e-14       1.183187629591e-16       4.629738520280e-11       5.338979078145e-12      -8.372157801802e-15 
   54       2.017023646267e-10       2.030204185878e-14      -4.144313307741e-14       1.228460687605e-16       4.442332028933e-11       5.147999376212e-12      -8.707405152388e-15 
   55       2.045321879112e-10       2.149386260994e-14      -7.350554893673e-14       1.274586545679e-16       4.264267560788e-11       4.965395279912e-12      -8.876576025493e-15 
   56       2.073780391278e-10       2.272464530086e-14      -1.074330269613e-13       1.321563849998e-16       4.095333954531e-11       4.790963861285e-12      -8.900248251592e-15 
   57       2.102444123130e-10       2.399428026573e-14      -1.432170030789e-13       1.369391313336e-16       3.935436645247e-11       4.624821672868e-12      -8.823393187780e-15 
   58       2.131352457579e-10       2.530259775861e-14      -1.808436845450e-13       1.418067537897e-16       3.784211215984e-11       4.466844437631e-12      -8.698917211509e-15 
   59       2.160538627764e-10       2.664936644975e-14      -2.202938866353e-13       1.467591014026e-16       3.641006733882e-11       4.316651506834e-12      -8.588026467596e-15 
   60       2.190029124737e-10       2.803429192194e-14      -2.615428693388e-13       1.517960118911e-16       3.504869086310e-11       4.173590317898e-12      -8.560591615212e-15 
   61       2.219843581875e-10       2.945701654348e-14      -3.045649987241e-13       1.569173405389e-16       3.374805807793e-11       4.036943231531e-12      -8.677049546702e-15 
   62       2.249995737817e-10       3.091712245589e-14      -3.493493231394e-13       1.621230547044e-16       3.250687722177e-11       3.906637456403e-12      -8.928536288536e-15 
   63       2.280491639576e-10       3.241412659156e-14      -3.958872193775e-13       1.674131603912e-16       3.132521034445e-11       3.782667620089e-12      -9.283902382189e-15 
   64       2.311328619122e-10       3.394747792509e-14      -4.441678664973e-13       1.727876758860e-16       3.020176119376e-11       3.664879133032e-12      -9.706773441925e-15 
   65       2.342494716191e-10       3.551655601330e-14      -4.941782355993e-13       1.782466325491e-16       2.913379789172e-11       3.552959702336e-12      -1.015532908388e-14 
   66       2.373968101097e-10       3.712066953519e-14      -5.459030796023e-13       1.837900756059e-16       2.811707561082e-11       3.446430845553e-12      -1.058208185512e-14 
   67       2.405716497538e-10       3.875905483197e-14      -5.993249230192e-13       1.894180649375e-16       2.714575925023e-11       3.344639404470e-12      -1.093365616276e-14 
   68       2.437709095944e-10       4.043086392761e-14      -6.544251218939e-13       1.951306784480e-16       2.621398096197e-11       3.246926757399e-12      -1.116298356052e-14 
   69       2.469956386843e-10       4.213512903555e-14      -7.111873158610e-13       2.009280211886e-16       2.532105204761e-11       3.153195239869e-12      -1.126925224629e-14 
   70       2.502477398978e-10       4.387078820428e-14      -7.695946604118e-13       2.068102195121e-16       2.446717307351e-11       3.063441778014e-12      -1.126569243573e-14 
   71       2.535287669796e-10       4.563669350230e-14      -8.296288354616e-13       2.127774195016e-16       2.365185758625e-11       2.977586474200e-12      -1.116797098393e-14 
   72       2.568398987712e-10       4.743160928912e-14      -8.912700624958e-13       2.188297878275e-16       2.287389660077e-11       2.895468665530e-12      -1.099428786841e-14 
   73       2.601819134366e-10       4.925421048617e-14      -9.544971217159e-13       2.249675126047e-16       2.213132308872e-11       2.816842982352e-12      -1.076547267212e-14 
   74       2.635551626887e-10       5.110308084775e-14      -1.019287369185e-12       2.311908042491e-16       2.142137646666e-11       2.741375406767e-12      -1.050508106640e-14 
   75       2.669595460151e-10       5.297671123203e-14      -1.085616753976e-12       2.374998963347e-16       2.074046708432e-11       2.668639331135e-12      -1.023949129396e-14 
   76       2.703948531413e-10       5.487358418479e-14      -1.153457338734e-12       2.438950186029e-16       2.008506686082e-11       2.598224938907e-12      -9.992559518798e-15 
   77       2.738619204900e-10       5.679244932012e-14      -1.222769301486e-12       2.503763084132e-16       1.945464719544e-11       2.530099087444e-12      -9.768247408439e-15 
   78       2.773616397614e-10       5.873209524869e-14      -1.293507499699e-12       2.569438846268e-16       1.884921477043e-11       2.464304195568e-12      -9.564987179323e-15 
   79       2.808945904767e-10       6.069126776009e-14      -1.365623803974e-12       2.635978743031e-16       1.826841667778e-11       2.400849151658e-12      -9.380826841325e-15 
   80       2.844610217556e-10       6.266866986366e-14      -1.439067063994e-12       2.703384129856e-16       1.771152389884e-11       2.339707695923e-12      -9.213415105889e-15 
   81       2.880608340929e-10       6.466296182937e-14      -1.513783074478e-12       2.771656449876e-16       1.717741478405e-11       2.280816802671e-12      -9.059986294161e-15 
   82       2.916935611355e-10       6.667276122870e-14      -1.589714541131e-12       2.840797236783e-16       1.666455853253e-11       2.224075062589e-12      -8.917345245133e-15 
   83       2.953583514603e-10       6.869664297548e-14      -1.666801046599e-12       2.910808117685e-16       1.617099867182e-11       2.169341065010e-12      -8.781852223776e-15 
   84       2.990543341073e-10       7.073311838383e-14      -1.744982268058e-12       2.981690833873e-16       1.569482837301e-11       2.116470728440e-12      -8.650188291191e-15 
   85       3.027818247262e-10       7.278056826353e-14      -1.824208317450e-12       3.053447300809e-16       1.523574312002e-11       2.065439946293e-12      -8.521830258200e-15 
   86       3.065412869026e-10       7.483729875661e-14      -1.904431060984e-12       3.126079563367e-16       1.479371634758e-11       2.016239401732e-12      -8.396960264120e-15 
   87       3.103329545791e-10       7.690156102699e-14      -1.985601040204e-12       3.199589781930e-16       1.436852235894e-11       1.968836478234e-12      -8.275719848899e-15 
   88       3.141568202824e-10       7.897155094864e-14      -2.067667492590e-12       3.273980235542e-16       1.395972807168e-11       1.923174296456e-12      -8.158207978270e-15 
   89       3.180126233499e-10       8.104540879383e-14      -2.150578372159e-12       3.349253325073e-16       1.356668476352e-11       1.879170751097e-12      -8.044479068892e-15 
   90       3.218998381565e-10       8.312121892131e-14      -2.234280370065e-12       3.425411576376e-16       1.318851981812e-11       1.836717547771e-12      -7.934541013498e-15 
   91       3.258176623411e-10       8.519700946454e-14      -2.318718935203e-12       3.502457643445e-16       1.282412847091e-11       1.795679239866e-12      -7.828353206042e-15 
   92       3.297650050340e-10       8.727075201991e-14      -2.403838294806e-12       3.580394311580e-16       1.247216555487e-11       1.755892265412e-12      -7.725824566844e-15 
   93       3.337408258199e-10       8.934041971148e-14      -2.489581080682e-12       3.659224821990e-16       1.213136453274e-11       1.717204607428e-12      -7.626860477188e-15 
   94       3.377452355171e-10       9.140417205217e-14      -2.575887098870e-12       3.738953894606e-16       1.180156740921e-11       1.679603690207e-12      -7.531515947342e-15 
   95       3.417785399585e-10       9.346019743862e-14      -2.662694412164e-12       3.819586865657e-16       1.148283517714e-11       1.643106027405e-12      -7.439861940901e-15 
   96       3.458408971409e-10       9.550665773493e-14      -2.749939732984e-12       3.901129387402e-16       1.117513062187e-11       1.607717912426e-12      -7.351937231923e-15 
   97       3.499323102663e-10       9.754168876219e-14      -2.837558438554e-12       3.983587435696e-16       1.087831455957e-11       1.573435012916e-12      -7.267747101439e-15 
   98       3.540526207830e-10       9.956340078801e-14      -2.925484586099e-12       4.066967317570e-16       1.059214207569e-11       1.540241965264e-12      -7.187262033981e-15 
   99       3.582015014272e-10       1.015698790161e-13      -3.013650928026e-12       4.151275678795e-16       1.031625876336e-11       1.508111969097e-12      -7.110416414093e-15 
  100       3.623784492641e-10       1.035591840756e-13      -3.101988927114e-12       4.236519511460e-16       1.005019696183e-11       1.477006381779e-12      -7.037107222853e-15 
  101       3.665827787291e-10       1.055293525111e-13      -3.190428771704e-12       4.322706161542e-16       9.793371994838e-12       1.446874312908e-12      -6.967192734390e-15 
  102       3.708136146692e-10       1.074783972716e-13      -3.278899390881e-12       4.409843336477e-16       9.545078409080e-12       1.417652218812e-12      -6.900491212404e-15 
  103       3.750698853843e-10       1.094043082003e-13      -3.367328469667e-12       4.497939112733e-16       9.304486212586e-12       1.389263497051e-12      -6.836779606681e-15 
  104       3.793505453992e-10       1.113050974812e-13      -3.455643321259e-12       4.587001483906e-16       9.070828975117e-12       1.361636557087e-12      -6.775807097010e-15 
  105       3.836552930404e-10       1.131789419153e-13      -3.543773605238e-12       4.677036919169e-16       8.844005169725e-12       1.334762685818e-12      -6.717340616093e-15 
  106       3.879839372719e-10       1.150240608659e-13      -3.631649006573e-12       4.768051623300e-16       8.624051429162e-12       1.308645279250e-12      -6.661123074683e-15 
  107       3.923361722394e-10       1.168386739894e-13      -3.719198435669e-12       4.860051981262e-16       8.410956304587e-12       1.283281864326e-12      -6.606857936757e-15 
