# Matter power spectrum P(k) at redshift z=0
# for k=1.10732e-05 to 20.1095 h/Mpc,
# number of wavenumbers equal to 847
#    1:k (h/Mpc)              2:P (Mpc/h)^3        
       1.107317772065e-05       4.125671691264e+01 
       2.472387211850e-05       8.949994834724e+01 
       3.842846360950e-05       1.369247102505e+02 
       5.222837606538e-05       1.840537978729e+02 
       6.616580199641e-05       2.311918876049e+02 
       8.028412487584e-05       2.785720308599e+02 
       9.462835654767e-05       3.263969574871e+02 
       1.092455961873e-04       3.748561593473e+02 
       1.241855173283e-04       4.241348403136e+02 
       1.395008895006e-04       4.744194825186e+02 
       1.552481409925e-04       5.259018519611e+02 
       1.714879690707e-04       5.787822396976e+02 
       1.882860035665e-04       6.332723268303e+02 
       2.057135289094e-04       6.895978804100e+02 
       2.238482682627e-04       7.480014056523e+02 
       2.427752311194e-04       8.087447806512e+02 
       2.625876221967e-04       8.721119494779e+02 
       2.833878042717e-04       9.384116137408e+02 
       3.052883001775e-04       1.007979894283e+03 
       3.284128088792e-04       1.081182891199e+03 
       3.528971966689e-04       1.158418974325e+03 
       3.788904064142e-04       1.240120661215e+03 
       4.065552050333e-04       1.326755764421e+03 
       4.360686620715e-04       1.418827489928e+03 
       4.676222215274e-04       1.516873091914e+03 
       5.014211976820e-04       1.621460477273e+03 
       5.376834987030e-04       1.733182295511e+03 
       5.766373673593e-04       1.852646856943e+03 
       6.185179375336e-04       1.980465403641e+03 
       6.635624518613e-04       2.117235406287e+03 
       7.120040827310e-04       2.263519925070e+03 
       7.640644534552e-04       2.419823560231e+03 
       8.199451635708e-04       2.586566198639e+03 
       8.798188576122e-04       2.764056456357e+03 
       9.438205940852e-04       2.952467201245e+03 
       1.012040408795e-03       3.151816084254e+03 
       1.084517963725e-03       3.361953536109e+03 
       1.161239995243e-03       3.582560338805e+03 
       1.242140937371e-03       3.813155496916e+03 
       1.327106664275e-03       4.053113848493e+03 
       1.415980872486e-03       4.301691617610e+03 
       1.508573308148e-03       4.558056732252e+03 
       1.600463238080e-03       4.809858483632e+03 
       1.604668900590e-03       4.821320931145e+03 
       1.704036898571e-03       5.090570406655e+03 
       1.806439278128e-03       5.364892942747e+03 
       1.911637934601e-03       5.643400039505e+03 
       2.019400420676e-03       5.925243855629e+03 
       2.129504201157e-03       6.209629049068e+03 
       2.241739541922e-03       6.495820337794e+03 
       2.355911234221e-03       6.783145769726e+03 
       2.471839387193e-03       7.070997925319e+03 
       2.589359517119e-03       7.358831653125e+03 
       2.708322136466e-03       7.646161215280e+03 
       2.828592010923e-03       7.932556090248e+03 
       2.950047216342e-03       8.217637140470e+03 
       3.072578094223e-03       8.501071197452e+03 
       3.196086176276e-03       8.782567148566e+03 
       3.320483126124e-03       9.061870987651e+03 
       3.445689729029e-03       9.338762096806e+03 
       3.571634947869e-03       9.613049415598e+03 
       3.698255054619e-03       9.884568471177e+03 
       3.825492840360e-03       1.015317681067e+04 
       3.953296902846e-03       1.041875463135e+04 
       4.081621008042e-03       1.068119806820e+04 
       4.210423520647e-03       1.094042103804e+04 
       4.339666897875e-03       1.119635011086e+04 
       4.469317240545e-03       1.144892601546e+04 
       4.599343895654e-03       1.169810041217e+04 
       4.729719104860e-03       1.194383276670e+04 
       4.860417693748e-03       1.218609324219e+04 
       4.991416797156e-03       1.242486041833e+04 
       5.122695616330e-03       1.266011696812e+04 
       5.254235204113e-03       1.289185383222e+04 
       5.386018274793e-03       1.312006228724e+04 
       5.518029035642e-03       1.334474368469e+04 
       5.650253037511e-03       1.356590161116e+04 
       5.782677042191e-03       1.378354164697e+04 
       5.915288904509e-03       1.399767385240e+04 
       6.048077467387e-03       1.420830961845e+04 
       6.181032468331e-03       1.441546392462e+04 
       6.314144455979e-03       1.461915648990e+04 
       6.447404715532e-03       1.481940449150e+04 
       6.580805202027e-03       1.501622715352e+04 
       6.714338480547e-03       1.520964859792e+04 
       6.847997672569e-03       1.539968946967e+04 
       6.981776407759e-03       1.558637497756e+04 
       7.115668780595e-03       1.576972912871e+04 
       7.249669311281e-03       1.594978685292e+04 
       7.383772910491e-03       1.612656116971e+04 
       7.517974847507e-03       1.630008371924e+04 
       7.652270721404e-03       1.647038659270e+04 
       7.786656434946e-03       1.663749456357e+04 
       7.921128170914e-03       1.680143333315e+04 
       8.055682370606e-03       1.696223898650e+04 
       8.190315714296e-03       1.711992913026e+04 
       8.325025103439e-03       1.727454098785e+04 
       8.459807644463e-03       1.742610477915e+04 
       8.594660633974e-03       1.757464131990e+04 
       8.729581545247e-03       1.772018342595e+04 
       8.864568015872e-03       1.786276486594e+04 
       8.999617836449e-03       1.800240942619e+04 
       9.134728940226e-03       1.813914164741e+04 
       9.269899393596e-03       1.827300412987e+04 
       9.405127387376e-03       1.840401587302e+04 
       9.540411228791e-03       1.853220432892e+04 
       9.675749334100e-03       1.865760138159e+04 
       9.811140221810e-03       1.878023812238e+04 
       9.946582506424e-03       1.890014155094e+04 
       1.008207489267e-02       1.901733513486e+04 
       1.021761617020e-02       1.913184808095e+04 
       1.035320520864e-02       1.924371334821e+04 
       1.048884095310e-02       1.935294942819e+04 
       1.062452241992e-02       1.945959053087e+04 
       1.076024869283e-02       1.956366319907e+04 
       1.089601891934e-02       1.966518635809e+04 
       1.103183230741e-02       1.976420173405e+04 
       1.116768812232e-02       1.986072316206e+04 
       1.130358568390e-02       1.995478301450e+04 
       1.143952436377e-02       2.004640718221e+04 
       1.157550358295e-02       2.013561613687e+04 
       1.171152280952e-02       2.022244219718e+04 
       1.184758155654e-02       2.030689997649e+04 
       1.198367938004e-02       2.038903878291e+04 
       1.211981587721e-02       2.046886264037e+04 
       1.225599068467e-02       2.054639629032e+04 
       1.239220347693e-02       2.062167341083e+04 
       1.252845396487e-02       2.069471133826e+04 
       1.266474189442e-02       2.076553752115e+04 
       1.280106704526e-02       2.083417299543e+04 
       1.293742922964e-02       2.090064996584e+04 
       1.307382829133e-02       2.096498599361e+04 
       1.321026410455e-02       2.102720732243e+04 
       1.334673657309e-02       2.108732951691e+04 
       1.348324562937e-02       2.114538814135e+04 
       1.361979123370e-02       2.120140010174e+04 
       1.375637337352e-02       2.125538884387e+04 
       1.389299206268e-02       2.130737964459e+04 
       1.402964734084e-02       2.135739085630e+04 
       1.416633927290e-02       2.140544967214e+04 
       1.430306794843e-02       2.145157110334e+04 
       1.443983348120e-02       2.149578509020e+04 
       1.457663600876e-02       2.153809715697e+04 
       1.471347569197e-02       2.157854473787e+04 
       1.485035271472e-02       2.161714866418e+04 
       1.498726728353e-02       2.165392490066e+04 
       1.512421962729e-02       2.168888773235e+04 
       1.526120999698e-02       2.172207544376e+04 
       1.539823866546e-02       2.175349524364e+04 
       1.553530592725e-02       2.178317858301e+04 
       1.567241209837e-02       2.181114302199e+04 
       1.580955751621e-02       2.183740024205e+04 
       1.594674253936e-02       2.186197949124e+04 
       1.600463238080e-02       2.187185566904e+04 
       1.608396754759e-02       2.188489616846e+04 
       1.622123294172e-02       2.190617874074e+04 
       1.635853914361e-02       2.192583602628e+04 
       1.649588659614e-02       2.194389793332e+04 
       1.663327576319e-02       2.196036608254e+04 
       1.677070712968e-02       2.197528058174e+04 
       1.690818120160e-02       2.198864373134e+04 
       1.704569850609e-02       2.200050678095e+04 
       1.718325959150e-02       2.201085240105e+04 
       1.732086502751e-02       2.201970498782e+04 
       1.745851540526e-02       2.202709743116e+04 
       1.759621133746e-02       2.203305420068e+04 
       1.773395345858e-02       2.203756907426e+04 
       1.787174242498e-02       2.204067391592e+04 
       1.800957891517e-02       2.204239437725e+04 
       1.814746362997e-02       2.204273954396e+04 
       1.828539729275e-02       2.204173185447e+04 
       1.842338064968e-02       2.203936966101e+04 
       1.856141447000e-02       2.203570020812e+04 
       1.869949954629e-02       2.203074132358e+04 
       1.883763669475e-02       2.202448190518e+04 
       1.897582675557e-02       2.201696834882e+04 
       1.911407059319e-02       2.200820112417e+04 
       1.925236909670e-02       2.199820596587e+04 
       1.939072318016e-02       2.198699093927e+04 
       1.952913378303e-02       2.197456016842e+04 
       1.966760187054e-02       2.196097615080e+04 
       1.980612843412e-02       2.194622978600e+04 
       1.994471449180e-02       2.193032742399e+04 
       2.008336108871e-02       2.191330855074e+04 
       2.022206929753e-02       2.189514035555e+04 
       2.036084021897e-02       2.187591013756e+04 
       2.049967498227e-02       2.185559416579e+04 
       2.063857474574e-02       2.183421246604e+04 
       2.077754069732e-02       2.181176048052e+04 
       2.091657405511e-02       2.178830850604e+04 
       2.105567606795e-02       2.176382035275e+04 
       2.119484801608e-02       2.173833468402e+04 
       2.133409121170e-02       2.171187885054e+04 
       2.147340699963e-02       2.168444180683e+04 
       2.161279675800e-02       2.165605007770e+04 
       2.175226189892e-02       2.162673024672e+04 
       2.189180386919e-02       2.159648313334e+04 
       2.203142415105e-02       2.156532582320e+04 
       2.217112426292e-02       2.153327254801e+04 
       2.231090576016e-02       2.150033761550e+04 
       2.245077023592e-02       2.146655283793e+04 
       2.259071932197e-02       2.143191836249e+04 
       2.273075468952e-02       2.139643669137e+04 
       2.287087805011e-02       2.136012557181e+04 
       2.301109115655e-02       2.132304739533e+04 
       2.315139580386e-02       2.128514849860e+04 
       2.329179383020e-02       2.124648641416e+04 
       2.343228711791e-02       2.120703693026e+04 
       2.357287759450e-02       2.116685196189e+04 
       2.371356723378e-02       2.112595271287e+04 
       2.385435805686e-02       2.108430118100e+04 
       2.399525213337e-02       2.104197968141e+04 
       2.413625158257e-02       2.099893679421e+04 
       2.427735857457e-02       2.095519535801e+04 
       2.441857533156e-02       2.091079400026e+04 
       2.455990412908e-02       2.086580288634e+04 
       2.470134729737e-02       2.082011341578e+04 
       2.484290722268e-02       2.077378681201e+04 
       2.498458634871e-02       2.072681436252e+04 
       2.512638717804e-02       2.067930416624e+04 
       2.526831227360e-02       2.063116504322e+04 
       2.541036426024e-02       2.058245705533e+04 
       2.555254582630e-02       2.053320372501e+04 
       2.569485972526e-02       2.048335297302e+04 
       2.583730877739e-02       2.043297378023e+04 
       2.597989587155e-02       2.038208249028e+04 
       2.612262396695e-02       2.033067332321e+04 
       2.626549609502e-02       2.027874561289e+04 
       2.640851536136e-02       2.022630877662e+04 
       2.655168494765e-02       2.017343515353e+04 
       2.669500811377e-02       2.012002001926e+04 
       2.683848819990e-02       2.006616304363e+04 
       2.698212862868e-02       2.001188007995e+04 
       2.712593290747e-02       1.995712708355e+04 
       2.726990463075e-02       1.990196693374e+04 
       2.741404748246e-02       1.984640112464e+04 
       2.755836523852e-02       1.979040209356e+04 
       2.770286176945e-02       1.973400358756e+04 
       2.784754104298e-02       1.967721715390e+04 
       2.799240712690e-02       1.962011652783e+04 
       2.813746419182e-02       1.956254724299e+04 
       2.828271651424e-02       1.950468668198e+04 
       2.842816847953e-02       1.944649465073e+04 
       2.857382458518e-02       1.938791247012e+04 
       2.871968944402e-02       1.932896433859e+04 
       2.886576778771e-02       1.926985718559e+04 
       2.901206447022e-02       1.921031694092e+04 
       2.915858447149e-02       1.915053324006e+04 
       2.930533290130e-02       1.909043354388e+04 
       2.945231500313e-02       1.903004044877e+04 
       2.959953615829e-02       1.896939790169e+04 
       2.974700189017e-02       1.890844878650e+04 
       2.989471786863e-02       1.884728264093e+04 
       3.004268991456e-02       1.878581445430e+04 
       3.019092400468e-02       1.872421555539e+04 
       3.033942627642e-02       1.866232544026e+04 
       3.048820303308e-02       1.860017599341e+04 
       3.063726074914e-02       1.853788237824e+04 
       3.078660607584e-02       1.847532158662e+04 
       3.093624584689e-02       1.841262552707e+04 
       3.108618708453e-02       1.834966265037e+04 
       3.123643700572e-02       1.828656791492e+04 
       3.138700302866e-02       1.822323874731e+04 
       3.153789277956e-02       1.815981118923e+04 
       3.168911409971e-02       1.809621128371e+04 
       3.184067505277e-02       1.803243522937e+04 
       3.199258393251e-02       1.796851298899e+04 
       3.214484927073e-02       1.790436773448e+04 
       3.229747984561e-02       1.784020130408e+04 
       3.245048469046e-02       1.777588916322e+04 
       3.260387310271e-02       1.771145128601e+04 
       3.275765465346e-02       1.764684435402e+04 
       3.291183919736e-02       1.758217367573e+04 
       3.306643688299e-02       1.751735317288e+04 
       3.322145816363e-02       1.745248809519e+04 
       3.337691380865e-02       1.738751882958e+04 
       3.353281491530e-02       1.732244130834e+04 
       3.368917292117e-02       1.725728738166e+04 
       3.384599961714e-02       1.719202906004e+04 
       3.400330716100e-02       1.712673971351e+04 
       3.416110809176e-02       1.706136144597e+04 
       3.431941534453e-02       1.699592793823e+04 
       3.447824226630e-02       1.693044101351e+04 
       3.463760263236e-02       1.686490665680e+04 
       3.479751066364e-02       1.679926496620e+04 
       3.495798104488e-02       1.673366104327e+04 
       3.511902894371e-02       1.666792306219e+04 
       3.528067003079e-02       1.660221275900e+04 
       3.544292050094e-02       1.653649689346e+04 
       3.560579709538e-02       1.647065235952e+04 
       3.576931712521e-02       1.640488415943e+04 
       3.593349849610e-02       1.633900740999e+04 
       3.609835973434e-02       1.627311090358e+04 
       3.626392001438e-02       1.620724330490e+04 
       3.643019918777e-02       1.614139990118e+04 
       3.659721781390e-02       1.607548631350e+04 
       3.676499719231e-02       1.600953934085e+04 
       3.693355939703e-02       1.594361529110e+04 
       3.710292731278e-02       1.587772149218e+04 
       3.727312467338e-02       1.581174559517e+04 
       3.744417610244e-02       1.574583907317e+04 
       3.761610715645e-02       1.567988182009e+04 
       3.778894437053e-02       1.561398611957e+04 
       3.796271530706e-02       1.554807165389e+04 
       3.813744860722e-02       1.548214568424e+04 
       3.831317404592e-02       1.541623489632e+04 
       3.848992259014e-02       1.535036345476e+04 
       3.866772646112e-02       1.528443786208e+04 
       3.884661920058e-02       1.521857898746e+04 
       3.902663574140e-02       1.515275233768e+04 
       3.920781248301e-02       1.508687896015e+04 
       3.939018737192e-02       1.502100583249e+04 
       3.957379998788e-02       1.495514753941e+04 
       3.975869163598e-02       1.488932156315e+04 
       3.994490544540e-02       1.482353478054e+04 
       4.013248647518e-02       1.475776055419e+04 
       4.032148182773e-02       1.469192386480e+04 
       4.051194077080e-02       1.462610931319e+04 
       4.070391486858e-02       1.456033263159e+04 
       4.089745812272e-02       1.449452562312e+04 
       4.109262712441e-02       1.442866698586e+04 
       4.128948121822e-02       1.436292269104e+04 
       4.148808267916e-02       1.429712850477e+04 
       4.168849690394e-02       1.423133276193e+04 
       4.189079261800e-02       1.416553804549e+04 
       4.209504209985e-02       1.409973979627e+04 
       4.230132142437e-02       1.403391062923e+04 
       4.250971072715e-02       1.396799855648e+04 
       4.272029449193e-02       1.390213071527e+04 
       4.293316186369e-02       1.383623575313e+04 
       4.314840699012e-02       1.377025814688e+04 
       4.336612939455e-02       1.370433316710e+04 
       4.358643438384e-02       1.363826537765e+04 
       4.380943349526e-02       1.357217615952e+04 
       4.403524498684e-02       1.350607281829e+04 
       4.426399437615e-02       1.343983757793e+04 
       4.449581503361e-02       1.337357576951e+04 
       4.473084883661e-02       1.330719701504e+04 
       4.496924689232e-02       1.324073771296e+04 
       4.521117033770e-02       1.317422230915e+04 
       4.545679122665e-02       1.310755839220e+04 
       4.570629351598e-02       1.304078541032e+04 
       4.595987416321e-02       1.297386095378e+04 
       4.621774435180e-02       1.290680641824e+04 
       4.648013086143e-02       1.283959827686e+04 
       4.674727760418e-02       1.277222392330e+04 
       4.701944735093e-02       1.270464622789e+04 
       4.729692367624e-02       1.263687942988e+04 
       4.758001315515e-02       1.256889782744e+04 
       4.786904785134e-02       1.250065570301e+04 
       4.816438814309e-02       1.243218637747e+04 
       4.846642594243e-02       1.236339017759e+04 
       4.877558837334e-02       1.229430350413e+04 
       4.909234198787e-02       1.222490881522e+04 
       4.941719761473e-02       1.215510317658e+04 
       4.975071595453e-02       1.208494660889e+04 
       5.009351405979e-02       1.201434458013e+04 
       5.044627286743e-02       1.194328505040e+04 
       5.080974598894e-02       1.187174653775e+04 
       5.118477000903e-02       1.179960343230e+04 
       5.157227660253e-02       1.172689815290e+04 
       5.197330685162e-02       1.165351800399e+04 
       5.238902823867e-02       1.157943546170e+04 
       5.282075490715e-02       1.150453297759e+04 
       5.326997193232e-02       1.142877496064e+04 
       5.373836453384e-02       1.135204852071e+04 
       5.422785340506e-02       1.127425833292e+04 
       5.474063764241e-02       1.119531763688e+04 
       5.527924714999e-02       1.111495806458e+04 
       5.584660688577e-02       1.103311424975e+04 
       5.644611592423e-02       1.094961270086e+04 
       5.708174503981e-02       1.086411290769e+04 
       5.775815734792e-02       1.077638418782e+04 
       5.848085739220e-02       1.068608896926e+04 
       5.925637472473e-02       1.059267838813e+04 
       6.009248800817e-02       1.049560246512e+04 
       6.099849396892e-02       1.039414177977e+04 
       6.198552015712e-02       1.028728326762e+04 
       6.306686769668e-02       1.017370712179e+04 
       6.425834352238e-02       1.005172675621e+04 
       6.557849089498e-02       9.918964166436e+03 
