# Matter power spectrum P(k) at redshift z=0
# for k=9.60881e-06 to 21.9587 h/Mpc,
# number of wavenumbers equal to 853
#    1:k (h/Mpc)              2:P (Mpc/h)^3        
       9.608806565107e-06       6.158146199366e+01 
       2.145156745703e-05       1.335748255055e+02 
       3.332954735221e-05       2.042782156209e+02 
       4.526975115419e-05       2.744214382475e+02 
       5.729956186539e-05       3.444079317705e+02 
       6.944694710181e-05       4.145323089407e+02 
       8.174067122832e-05       4.850409977357e+02 
       9.421051552855e-05       5.561567472929e+02 
       1.068875088434e-04       6.280909358618e+02 
       1.198041711362e-04       7.010507790593e+02 
       1.329947724596e-04       7.752441256892e+02 
       1.464956097987e-04       8.508830147134e+02 
       1.603453042204e-04       9.281865575711e+02 
       1.745851206528e-04       1.007383450046e+03 
       1.892593124115e-04       1.088714305693e+03 
       2.044154922346e-04       1.172433881811e+03 
       2.201050310352e-04       1.258813270640e+03 
       2.363834847410e-04       1.348142102494e+03 
       2.533110483824e-04       1.440730742079e+03 
       2.709530348823e-04       1.536912494734e+03 
       2.893803736693e-04       1.637045783067e+03 
       3.086701210935e-04       1.741516239248e+03 
       3.289059705157e-04       1.850738664770e+03 
       3.501787446709e-04       1.965158704935e+03 
       3.725868463269e-04       2.085254153353e+03 
       3.962366352877e-04       2.211535654239e+03 
       4.212426904911e-04       2.344546605733e+03 
       4.477279056125e-04       2.484861967316e+03 
       4.758233558858e-04       2.633085675454e+03 
       5.056678639574e-04       2.789846270223e+03 
       5.374071853343e-04       2.955790368702e+03 
       5.711927319294e-04       3.131573663063e+03 
       6.071797585811e-04       3.317849076575e+03 
       6.455249558241e-04       3.515251952350e+03 
       6.863834258880e-04       3.724382325963e+03 
       7.299050697801e-04       3.945784590212e+03 
       7.762304804195e-04       4.179925250029e+03 
       8.254865149471e-04       4.427169928382e+03 
       8.777817983007e-04       4.687761046646e+03 
       9.332024751379e-04       4.961798035880e+03 
       9.918085613878e-04       5.249221913558e+03 
       1.053631235555e-03       5.549806086624e+03 
       1.118671346315e-03       5.863154619264e+03 
       1.186899301353e-03       6.188708537498e+03 
       1.258256359613e-03       6.525759891561e+03 
       1.332657200755e-03       6.873472580620e+03 
       1.340840250952e-03       6.911485498333e+03 
       1.409993519211e-03       7.230907681360e+03 
       1.490138307530e-03       7.597051464972e+03 
       1.572950464739e-03       7.970843762850e+03 
       1.658279387686e-03       8.351204642079e+03 
       1.745969263858e-03       8.737058832152e+03 
       1.835862865565e-03       9.127355839150e+03 
       1.927804730282e-03       9.521086790753e+03 
       2.021643687598e-03       9.917296421108e+03 
       2.117234751992e-03       1.031509182747e+04 
       2.214440440455e-03       1.071364688221e+04 
       2.313131596169e-03       1.111220442739e+04 
       2.413187807521e-03       1.151007614635e+04 
       2.514497509855e-03       1.190664012841e+04 
       2.616957849248e-03       1.230133888796e+04 
       2.720474376409e-03       1.269367439924e+04 
       2.824960626633e-03       1.308320495168e+04 
       2.930337630105e-03       1.346953988485e+04 
       3.036533386399e-03       1.385233564738e+04 
       3.143482328220e-03       1.423129143300e+04 
       3.251124792182e-03       1.460614473211e+04 
       3.359406508800e-03       1.497666878588e+04 
       3.468278119440e-03       1.534266771667e+04 
       3.577694724771e-03       1.570397409071e+04 
       3.687615466840e-03       1.606044649169e+04 
       3.798003145249e-03       1.641196524761e+04 
       3.908823866730e-03       1.675843203868e+04 
       4.020046726690e-03       1.709976496238e+04 
       4.131643520835e-03       1.743590070504e+04 
       4.243588484725e-03       1.776678772641e+04 
       4.355858059030e-03       1.809238858812e+04 
       4.468430678260e-03       1.841267597300e+04 
       4.581286580801e-03       1.872763292172e+04 
       4.694407638220e-03       1.903725047779e+04 
       4.807777201933e-03       1.934152905390e+04 
       4.921379965466e-03       1.964047137403e+04 
       5.035201840715e-03       1.993409173182e+04 
       5.149229846737e-03       2.022240781150e+04 
       5.263452009761e-03       2.050544220510e+04 
       5.377857273226e-03       2.078321894533e+04 
       5.492435416790e-03       2.105577093167e+04 
       5.607176983354e-03       2.132312962995e+04 
       5.722073213252e-03       2.158533173222e+04 
       5.837115984859e-03       2.184241891191e+04 
       5.952297760926e-03       2.209442493072e+04 
       6.067611540054e-03       2.234139888718e+04 
       6.183050812766e-03       2.258338271746e+04 
       6.298609521706e-03       2.282041992793e+04 
       6.414282025528e-03       2.305256055665e+04 
       6.530063066118e-03       2.327984836475e+04 
       6.645947738794e-03       2.350233171124e+04 
       6.761931465189e-03       2.372006372521e+04 
       6.878009968562e-03       2.393308538106e+04 
       6.994179251274e-03       2.414145303509e+04 
       7.110435574241e-03       2.434521515963e+04 
       7.226775438162e-03       2.454441937696e+04 
       7.343195566339e-03       2.473911680861e+04 
       7.459692888970e-03       2.492935849692e+04 
       7.576264528736e-03       2.511519747768e+04 
       7.692907787600e-03       2.529668039666e+04 
       7.809620134675e-03       2.547385551367e+04 
       7.926399195086e-03       2.564677470488e+04 
       8.043242739716e-03       2.581548959487e+04 
       8.160148675780e-03       2.598004956771e+04 
       8.277115038132e-03       2.614050146350e+04 
       8.394139981253e-03       2.629689808196e+04 
       8.511221771859e-03       2.644927871098e+04 
       8.628358782070e-03       2.659770011519e+04 
       8.745549483106e-03       2.674220692651e+04 
       8.862792439445e-03       2.688284739399e+04 
       8.980086303427e-03       2.701966013394e+04 
       9.097429810247e-03       2.715269970213e+04 
       9.214821773323e-03       2.728201025924e+04 
       9.332261079998e-03       2.740763653754e+04 
       9.449746687547e-03       2.752963210068e+04 
       9.567277619478e-03       2.764803043733e+04 
       9.684852962090e-03       2.776288025413e+04 
       9.802471861276e-03       2.787422647716e+04 
       9.920133519552e-03       2.798211161961e+04 
       1.003783719329e-02       2.808657786507e+04 
       1.015558219016e-02       2.818767135473e+04 
       1.027336786669e-02       2.828543138708e+04 
       1.039119362611e-02       2.837989143946e+04 
       1.050905891620e-02       2.847111099568e+04 
       1.062696322741e-02       2.855911088629e+04 
       1.074490609101e-02       2.864395270504e+04 
       1.086288707745e-02       2.872565386196e+04 
       1.098090579479e-02       2.880427460309e+04 
       1.109896188722e-02       2.887983660562e+04 
       1.121705503369e-02       2.895238354782e+04 
       1.133518494670e-02       2.902196640419e+04 
       1.145335137105e-02       2.908862068439e+04 
       1.157155408280e-02       2.915237319232e+04 
       1.168979288821e-02       2.921326830355e+04 
       1.180806762280e-02       2.927133602397e+04 
       1.192637815048e-02       2.932662032230e+04 
       1.204472436269e-02       2.937916031007e+04 
       1.216310617768e-02       2.942898102768e+04 
       1.228152353978e-02       2.947612434840e+04 
       1.239997641876e-02       2.952062174404e+04 
       1.251846480920e-02       2.956250099642e+04 
       1.263698872995e-02       2.960182287018e+04 
       1.275554822362e-02       2.963859667347e+04 
       1.287414335609e-02       2.967286417615e+04 
       1.299277421609e-02       2.970465521183e+04 
       1.311144091480e-02       2.973400956106e+04 
       1.323014358550e-02       2.976095257058e+04 
       1.334888238321e-02       2.978552488613e+04 
       1.340840250952e-02       2.979695198177e+04 
       1.346765748445e-02       2.980774146976e+04 
       1.358646908692e-02       2.982767200399e+04 
       1.370531740931e-02       2.984530848653e+04 
       1.382420269108e-02       2.986069684681e+04 
       1.394312519227e-02       2.987388224753e+04 
       1.406208519336e-02       2.988486894769e+04 
       1.418108299514e-02       2.989370552867e+04 
       1.430011891861e-02       2.990041575170e+04 
       1.441919330488e-02       2.990503253298e+04 
       1.453830651516e-02       2.990757867188e+04 
       1.465745893064e-02       2.990810064871e+04 
       1.477665095257e-02       2.990660836085e+04 
       1.489588300219e-02       2.990313676058e+04 
       1.501515552078e-02       2.989772724279e+04 
       1.513446896973e-02       2.989038599493e+04 
       1.525382383055e-02       2.988115516533e+04 
       1.537322060500e-02       2.987005911187e+04 
       1.549265981514e-02       2.985711142001e+04 
       1.561214200349e-02       2.984237910844e+04 
       1.573166773313e-02       2.982585381203e+04 
       1.585123758789e-02       2.980758717014e+04 
       1.597085217246e-02       2.978756524175e+04 
       1.609051211262e-02       2.976584389318e+04 
       1.621021805544e-02       2.974245963015e+04 
       1.632997066945e-02       2.971742000101e+04 
       1.644977064494e-02       2.969076419633e+04 
       1.656961869415e-02       2.966250017662e+04 
       1.668951555156e-02       2.963267930744e+04 
       1.680946197418e-02       2.960130584907e+04 
       1.692945874185e-02       2.956839830523e+04 
       1.704950665752e-02       2.953397317428e+04 
       1.716960654760e-02       2.949811676145e+04 
       1.728975926234e-02       2.946079892186e+04 
       1.740996567612e-02       2.942207313731e+04 
       1.753022668790e-02       2.938187562523e+04 
       1.765054322158e-02       2.934037038074e+04 
       1.777091622640e-02       2.929750471118e+04 
       1.789134667742e-02       2.925328045986e+04 
       1.801183557591e-02       2.920775457991e+04 
       1.813238394985e-02       2.916096097261e+04 
       1.825299285442e-02       2.911291006600e+04 
       1.837366337244e-02       2.906356985273e+04 
       1.849439661498e-02       2.901307552040e+04 
       1.861519372184e-02       2.896134801621e+04 
       1.873605586209e-02       2.890847199749e+04 
       1.885698423471e-02       2.885440593396e+04 
       1.897798006914e-02       2.879923990898e+04 
       1.909904462590e-02       2.874296575499e+04 
       1.922017919724e-02       2.868560429969e+04 
       1.934138510781e-02       2.862715975927e+04 
       1.946266371531e-02       2.856772079078e+04 
       1.958401641121e-02       2.850721985020e+04 
       1.970544462148e-02       2.844567429932e+04 
       1.982694980735e-02       2.838313495103e+04 
       1.994853346605e-02       2.831968553349e+04 
       2.007019713163e-02       2.825533285587e+04 
       2.019194237580e-02       2.818996869774e+04 
       2.031377080876e-02       2.812373423360e+04 
       2.043568408007e-02       2.805659828653e+04 
       2.055768387959e-02       2.798861027488e+04 
       2.067977193838e-02       2.791978476484e+04 
       2.080195002968e-02       2.785004809518e+04 
       2.092421996990e-02       2.777959950721e+04 
       2.104658361966e-02       2.770835938616e+04 
       2.116904288482e-02       2.763628346128e+04 
       2.129159971762e-02       2.756347377560e+04 
       2.141425611774e-02       2.748989696201e+04 
       2.153701413353e-02       2.741562641911e+04 
       2.165987586316e-02       2.734067034488e+04 
       2.178284345590e-02       2.726494550723e+04 
       2.190591911335e-02       2.718858886909e+04 
       2.202910509081e-02       2.711165128887e+04 
       2.215240369858e-02       2.703396265237e+04 
       2.227581730343e-02       2.695581623031e+04 
       2.239934833002e-02       2.687688706344e+04 
       2.252299926238e-02       2.679748505928e+04 
       2.264677264547e-02       2.671747493176e+04 
       2.277067108681e-02       2.663684648331e+04 
       2.289469725807e-02       2.655574191055e+04 
       2.301885389681e-02       2.647411138957e+04 
       2.314314380825e-02       2.639191319590e+04 
       2.326756986705e-02       2.630928204194e+04 
       2.339213501923e-02       2.622617565019e+04 
       2.351684228407e-02       2.614255640345e+04 
       2.364169475618e-02       2.605844212730e+04 
       2.376669560751e-02       2.597390720921e+04 
       2.389184808955e-02       2.588905275143e+04 
       2.401715553552e-02       2.580373259750e+04 
       2.414262136268e-02       2.571796917492e+04 
       2.426824907472e-02       2.563178517841e+04 
       2.439404226421e-02       2.554537921987e+04 
       2.452000461516e-02       2.545849784459e+04 
       2.464613990562e-02       2.537125014634e+04 
       2.477245201050e-02       2.528379014745e+04 
       2.489894490429e-02       2.519592388941e+04 
       2.502562266411e-02       2.510779736852e+04 
       2.515248947266e-02       2.501936414428e+04 
       2.527954962141e-02       2.493057401042e+04 
       2.540680751389e-02       2.484160478446e+04 
       2.553426766904e-02       2.475234821664e+04 
       2.566193472477e-02       2.466283991960e+04 
       2.578981344156e-02       2.457308184516e+04 
       2.591790870631e-02       2.448313247168e+04 
       2.604622553622e-02       2.439290847597e+04 
       2.617476908292e-02       2.430254148398e+04 
       2.630354463668e-02       2.421198661490e+04 
       2.643255763084e-02       2.412117376471e+04 
       2.656181364641e-02       2.403020700648e+04 
       2.669131841680e-02       2.393911498179e+04 
       2.682107783281e-02       2.384785278193e+04 
       2.695109794777e-02       2.375642866565e+04 
       2.708138498293e-02       2.366489757158e+04 
       2.721194533301e-02       2.357321688233e+04 
       2.734278557209e-02       2.348148622566e+04 
       2.747391245960e-02       2.338952835059e+04 
       2.760533294667e-02       2.329752309468e+04 
       2.773705418273e-02       2.320543565174e+04 
       2.786908352235e-02       2.311328389630e+04 
       2.800142853243e-02       2.302107343426e+04 
       2.813409699967e-02       2.292869921838e+04 
       2.826709693835e-02       2.283636755352e+04 
       2.840043659852e-02       2.274400782845e+04 
       2.853412447450e-02       2.265147838616e+04 
       2.866816931377e-02       2.255898111168e+04 
       2.880258012627e-02       2.246639001030e+04 
       2.893736619415e-02       2.237389380295e+04 
       2.907253708194e-02       2.228133719681e+04 
       2.920810264721e-02       2.218878554796e+04 
       2.934407305175e-02       2.209625238438e+04 
       2.948045877321e-02       2.200361964863e+04 
       2.961727061742e-02       2.191103082393e+04 
       2.975451973121e-02       2.181850188521e+04 
       2.989221761589e-02       2.172591462462e+04 
       3.003037614139e-02       2.163344465180e+04 
       3.016900756117e-02       2.154101133750e+04 
       3.030812452776e-02       2.144849855640e+04 
       3.044774010920e-02       2.135613016337e+04 
       3.058786780630e-02       2.126382192559e+04 
       3.072852157076e-02       2.117151085038e+04 
       3.086971582433e-02       2.107927126943e+04 
       3.101146547885e-02       2.098703900623e+04 
       3.115378595751e-02       2.089492064450e+04 
       3.129669321722e-02       2.080282645020e+04 
       3.144020377212e-02       2.071088139204e+04 
       3.158433471856e-02       2.061894552550e+04 
       3.172910376133e-02       2.052706978154e+04 
       3.187452924144e-02       2.043531384129e+04 
       3.202063016555e-02       2.034365796693e+04 
       3.216742623699e-02       2.025202517174e+04 
       3.231493788869e-02       2.016055895668e+04 
       3.246318631807e-02       2.006903785136e+04 
       3.261219352393e-02       1.997772833306e+04 
       3.276198234571e-02       1.988648407356e+04 
       3.291257650510e-02       1.979534112006e+04 
       3.306400065020e-02       1.970427962351e+04 
       3.321628040257e-02       1.961330598916e+04 
       3.336944240719e-02       1.952248877752e+04 
       3.352351438569e-02       1.943168598287e+04 
       3.367852519309e-02       1.934099445757e+04 
       3.383450487819e-02       1.925042317544e+04 
       3.399148474820e-02       1.915994675176e+04 
       3.414949743755e-02       1.906956338937e+04 
       3.430857698166e-02       1.897929204906e+04 
       3.446875889567e-02       1.888911496261e+04 
       3.463008025889e-02       1.879899333363e+04 
       3.479257980522e-02       1.870901986038e+04 
       3.495629802021e-02       1.861910742404e+04 
       3.512127724527e-02       1.852932243139e+04 
       3.528756178965e-02       1.843953977050e+04 
       3.545519805097e-02       1.834987465608e+04 
       3.562423464504e-02       1.826032147685e+04 
       3.579472254579e-02       1.817086506493e+04 
       3.596671523640e-02       1.808140018721e+04 
       3.614026887252e-02       1.799208756627e+04 
       3.631544245892e-02       1.790274164479e+04 
       3.649229804085e-02       1.781357291009e+04 
       3.667090091150e-02       1.772444446139e+04 
       3.685131983735e-02       1.763527585872e+04 
       3.703362730319e-02       1.754622257473e+04 
       3.721789977886e-02       1.745722276240e+04 
       3.740421801010e-02       1.736823796056e+04 
       3.759266733610e-02       1.727934823673e+04 
       3.778333803674e-02       1.719034411209e+04 
       3.797632571286e-02       1.710139312547e+04 
       3.817173170333e-02       1.701249739093e+04 
       3.836966354332e-02       1.692355230888e+04 
       3.857023546854e-02       1.683453654728e+04 
       3.877356897116e-02       1.674560227797e+04 
       3.897979341371e-02       1.665655676524e+04 
       3.918904670834e-02       1.656749373414e+04 
       3.940147606981e-02       1.647836983764e+04 
       3.961723885185e-02       1.638915001531e+04 
       3.983650347813e-02       1.629988834011e+04 
       4.005945048063e-02       1.621039535028e+04 
       4.028627366054e-02       1.612084868562e+04 
       4.051718138899e-02       1.603113948191e+04 
       4.075239806802e-02       1.594132707077e+04 
       4.099216577565e-02       1.585128944772e+04 
       4.123674612296e-02       1.576099721148e+04 
       4.148642235616e-02       1.567058261958e+04 
       4.174150174270e-02       1.557983003918e+04 
       4.200231828759e-02       1.548881957585e+04 
       4.226923583501e-02       1.539749206329e+04 
       4.254265162110e-02       1.530587538161e+04 
       4.282300035679e-02       1.521375605581e+04 
       4.311075893579e-02       1.512126874271e+04 
       4.340645188291e-02       1.502835107355e+04 
       4.371065768219e-02       1.493486087118e+04 
       4.402401615527e-02       1.484084779453e+04 
       4.434723709877e-02       1.474618722241e+04 
       4.468111043710e-02       1.465089045583e+04 
       4.502651820803e-02       1.455481838679e+04 
       4.538444877439e-02       1.445791941735e+04 
       4.575601375216e-02       1.436010362544e+04 
       4.614246826849e-02       1.426123993586e+04 
       4.654523531967e-02       1.416128318484e+04 
       4.696593519920e-02       1.406004469098e+04 
       4.740642122070e-02       1.395733704486e+04 
       4.786882328322e-02       1.385308874140e+04 
       4.835560123373e-02       1.374699696056e+04 
       4.886961048627e-02       1.363885291046e+04 
       4.941418296853e-02       1.352835616547e+04 
       4.999322717330e-02       1.341511644636e+04 
       5.061135183772e-02       1.329867955803e+04 
       5.127401840452e-02       1.317845631066e+04 
       5.198772758185e-02       1.305372356007e+04 
