# dimensionless total [l(l+1)/2pi] C_l's
# for l=2 to 6000, i.e. number of multipoles equal to 5999
#
# -> if you prefer output in CAMB/HealPix/LensPix units/order, set 'format' to 'camb' in input file
# -> if you don't want to see such a header, set 'headers' to 'no' in input file
# -> for CMB lensing (phi), these are C_l^phi-phi for the lensing potential.
#    Remember the conversion factors:
#    C_l^dd (deflection) = l(l+1) C_l^phi-phi
#    C_l^gg (shear/convergence) = 1/4 (l(l+1))^2 C_l^phi-phi
#
# 1:l     2:TT                     3:EE                     4:TE                     5:BB                     6:phiphi                 7:TPhi                   8:Ephi               
    2       1.675446996312e-10       4.364474089727e-15       3.266683383563e-13       0.000000000000e+00       7.246563788587e-09       5.920892482741e-10      -1.834946697075e-12 
    3       1.528245760931e-10       5.262747506233e-15       3.775318934803e-13       0.000000000000e+00       4.521998428728e-09       4.123573553110e-10      -1.340767209764e-12 
    4       1.408696844059e-10       4.228797387870e-15       3.544172386765e-13       0.000000000000e+00       3.153510807617e-09       3.082720006868e-10      -8.222781985600e-13 
    5       1.322583091959e-10       2.616154385899e-15       3.001951602043e-13       0.000000000000e+00       2.355302857889e-09       2.412363218043e-10      -4.052208052744e-13 
    6       1.263165877000e-10       1.391863272694e-15       2.398246960115e-13       0.000000000000e+00       1.839291266312e-09       1.948838306511e-10      -1.175166298615e-13 
    7       1.223217549022e-10       7.735060975642e-16       1.872603415224e-13       0.000000000000e+00       1.482373653871e-09       1.612340075916e-10       4.722382240136e-14 
    8       1.197508002726e-10       5.409995544783e-16       1.481393235408e-13       0.000000000000e+00       1.223852532136e-09       1.359233555529e-10       1.133240598830e-13 
    9       1.182027971963e-10       4.418936878315e-16       1.232443002869e-13       0.000000000000e+00       1.029980622266e-09       1.163743844723e-10       1.125973847817e-13 
   10       1.174162229384e-10       3.641662838580e-16       1.106959930547e-13       0.000000000000e+00       8.802337986890e-10       1.009360185159e-10       7.667051368711e-14 
   11       1.172108485961e-10       3.026669264475e-16       1.074214573643e-13       0.000000000000e+00       7.469347933757e-10       8.886533491650e-11       3.192882417525e-14 
   12       1.174715322067e-10       2.729879190785e-16       1.102004920535e-13       0.000000000000e+00       6.525306642881e-10       7.844408115052e-11      -5.556674304591e-15 
   13       1.180235127886e-10       2.722942753965e-16       1.163541012192e-13       0.000000000000e+00       5.750055570784e-10       6.985540826037e-11      -2.733835641544e-14 
   14       1.188707100894e-10       2.884108143153e-16       1.240827768563e-13       0.000000000000e+00       5.104820599909e-10       6.243218337438e-11      -3.341249317866e-14 
   15       1.199784252479e-10       3.165498179785e-16       1.322985704172e-13       0.000000000000e+00       4.561570489693e-10       5.617937675132e-11      -2.783730861938e-14 
   16       1.212451840321e-10       3.607739212066e-16       1.405857738918e-13       0.000000000000e+00       4.099599017125e-10       5.081474618485e-11      -1.691117216180e-14 
   17       1.226514458754e-10       4.256802421787e-16       1.491057037264e-13       0.000000000000e+00       3.703255938673e-10       4.616516939177e-11      -6.337961901080e-15 
   18       1.242122008299e-10       5.113595160761e-16       1.580598411528e-13       0.000000000000e+00       3.359245048338e-10       4.212609480767e-11       1.040152012142e-16 
   19       1.259233506470e-10       6.168030138465e-16       1.676025287459e-13       0.000000000000e+00       3.062074191518e-10       3.862676836564e-11       1.643971027316e-15 
   20       1.277128681476e-10       7.403913509617e-16       1.777993049156e-13       0.000000000000e+00       2.800357171591e-10       3.551479229905e-11      -1.097188156100e-15 
   21       1.295847686055e-10       8.821267625536e-16       1.883792906667e-13       0.000000000000e+00       2.569989597510e-10       3.273702246874e-11      -6.206375799487e-15 
   22       1.315354088800e-10       1.042294799179e-15       1.988889017083e-13       0.000000000000e+00       2.365451213355e-10       3.023390159767e-11      -1.106470475254e-14 
   23       1.335707634240e-10       1.221044624705e-15       2.089770319034e-13       0.000000000000e+00       2.183931671115e-10       2.800476969468e-11      -1.430454160394e-14 
   24       1.356762882699e-10       1.418567182333e-15       2.183049672648e-13       0.000000000000e+00       2.021241604756e-10       2.603489629300e-11      -1.508769912965e-14 
   25       1.378471728616e-10       1.636291369275e-15       2.266648614634e-13       0.000000000000e+00       1.875464029891e-10       2.427724006706e-11      -1.374137176695e-14 
   26       1.400667516777e-10       1.876132962695e-15       2.339218668554e-13       0.000000000000e+00       1.743955553109e-10       2.266090924667e-11      -1.116886351429e-14 
   27       1.423381921458e-10       2.139897888697e-15       2.401235600515e-13       0.000000000000e+00       1.625137964194e-10       2.117750244498e-11      -8.470519452048e-15 
   28       1.446601089901e-10       2.429327813214e-15       2.453852687638e-13       0.000000000000e+00       1.516963739178e-10       1.982737488493e-11      -6.768864832616e-15 
   29       1.470379779289e-10       2.745660920948e-15       2.497333836082e-13       0.000000000000e+00       1.418877536221e-10       1.860781162238e-11      -6.204370777759e-15 
   30       1.494657052026e-10       3.089929762615e-15       2.531804778536e-13       0.000000000000e+00       1.329822187108e-10       1.750271178157e-11      -6.552401722769e-15 
   31       1.519261946407e-10       3.463092708923e-15       2.557277902236e-13       0.000000000000e+00       1.247977256322e-10       1.648624153997e-11      -7.485936699680e-15 
   32       1.544230299254e-10       3.866071587385e-15       2.572629819548e-13       0.000000000000e+00       1.172918321159e-10       1.555292953907e-11      -8.609758290839e-15 
   33       1.569579238699e-10       4.299714175135e-15       2.576214068859e-13       0.000000000000e+00       1.104113855814e-10       1.469691463804e-11      -9.423360930624e-15 
   34       1.595251395723e-10       4.764846667179e-15       2.566361874447e-13       0.000000000000e+00       1.040599861225e-10       1.390661979196e-11      -9.464083048668e-15 
   35       1.621253928327e-10       5.262517331694e-15       2.542283193632e-13       0.000000000000e+00       9.820482038720e-11       1.317648960249e-11      -8.865992132419e-15 
   36       1.647549852296e-10       5.793833560143e-15       2.503475218272e-13       0.000000000000e+00       9.279851273291e-11       1.249822896812e-11      -8.001613795363e-15 
   37       1.674065546740e-10       6.359830614159e-15       2.449556829402e-13       0.000000000000e+00       8.777027979158e-11       1.186089542941e-11      -7.256659141691e-15 
   38       1.700875471630e-10       6.961244492129e-15       2.380504185865e-13       0.000000000000e+00       8.310696438012e-11       1.126380675741e-11      -6.738079195280e-15 
   39       1.728067125837e-10       7.598656281839e-15       2.296504634042e-13       0.000000000000e+00       7.879368384365e-11       1.070727453145e-11      -6.473357453548e-15 
   40       1.755685077687e-10       8.272544649305e-15       2.197905001958e-13       0.000000000000e+00       7.478919398166e-11       1.018882107052e-11      -6.488325438422e-15 
   41       1.783731471116e-10       8.983386673571e-15       2.084996652869e-13       0.000000000000e+00       7.104021535461e-11       9.704331914397e-12      -6.787655844641e-15 
   42       1.812180020706e-10       9.732015396779e-15       1.957265324506e-13       0.000000000000e+00       6.753554572530e-11       9.252579831569e-12      -7.289391193376e-15 
   43       1.840957975569e-10       1.051936776902e-14       1.813911907335e-13       0.000000000000e+00       6.426569492922e-11       8.831742679762e-12      -7.868621409802e-15 
   44       1.869936263068e-10       1.134638826889e-14       1.654048661348e-13       0.000000000000e+00       6.120664661385e-11       8.437965807529e-12      -8.373287887870e-15 
   45       1.898982171450e-10       1.221392159375e-14       1.476831934666e-13       0.000000000000e+00       5.832839204049e-11       8.066655436281e-12      -8.665898172379e-15 
   46       1.928147303821e-10       1.312235041349e-14       1.281923135232e-13       0.000000000000e+00       5.562629574286e-11       7.717194999813e-12      -8.767310544588e-15 
   47       1.957527784868e-10       1.407185080658e-14       1.069154382159e-13       0.000000000000e+00       5.309714216270e-11       7.389368042500e-12      -8.753214702922e-15 
   48       1.987210357665e-10       1.506248582510e-14       8.384025802808e-14       0.000000000000e+00       5.072967929702e-11       7.081954512982e-12      -8.715421389813e-15 
   49       2.017270968867e-10       1.609420013858e-14       5.895908644433e-14       0.000000000000e+00       4.850402163020e-11       6.792655243984e-12      -8.762757485619e-15 
   50       2.047764179307e-10       1.716693128396e-14       3.226161848357e-14       0.000000000000e+00       4.639761860229e-11       6.518817816216e-12      -8.990431173611e-15 
   51       2.078691289494e-10       1.828099144176e-14       3.710553951274e-15       0.000000000000e+00       4.440645512139e-11       6.260021633305e-12      -9.376247669854e-15 
   52       2.110021116564e-10       1.943678003026e-14      -2.674039295052e-14       0.000000000000e+00       4.252857362222e-11       6.016063994977e-12      -9.857769651094e-15 
   53       2.141696609952e-10       2.063467628479e-14      -5.913988436196e-14       0.000000000000e+00       4.075773022302e-11       5.786183130118e-12      -1.036081030999e-14 
   54       2.173633004841e-10       2.187503938881e-14      -9.353916190762e-14       0.000000000000e+00       3.908310662407e-11       5.569020388787e-12      -1.079884468769e-14 
   55       2.205747008533e-10       2.315811549512e-14      -1.299797172656e-13       0.000000000000e+00       3.749259297659e-11       5.363021902515e-12      -1.109359975396e-14 
   56       2.238057080430e-10       2.448373144014e-14      -1.684522517508e-13       0.000000000000e+00       3.598425152028e-11       5.167847026479e-12      -1.124416307284e-14 
   57       2.270604829373e-10       2.585152517149e-14      -2.089278772308e-13       0.000000000000e+00       3.455719612706e-11       4.983243560943e-12      -1.127401111594e-14 
   58       2.303425539732e-10       2.726102877128e-14      -2.513694765131e-13       0.000000000000e+00       3.320812510844e-11       4.808618702363e-12      -1.121156600861e-14 
   59       2.336547533929e-10       2.871166495968e-14      -2.957314182057e-13       0.000000000000e+00       3.193117224267e-11       4.643018357534e-12      -1.109043200853e-14 
   60       2.369991534959e-10       3.020274359844e-14      -3.419592715771e-13       0.000000000000e+00       3.071775780202e-11       4.485106457756e-12      -1.094963198426e-14 
   61       2.403772306425e-10       3.173352708932e-14      -3.900026741780e-13       0.000000000000e+00       2.955896086203e-11       4.333536133947e-12      -1.082494351235e-14 
   62       2.437905444953e-10       3.330345163332e-14      -4.398579548906e-13       0.000000000000e+00       2.845359549458e-11       4.188207396904e-12      -1.072009968507e-14 
   63       2.472400988134e-10       3.491194965693e-14      -4.915346156345e-13       0.000000000000e+00       2.740169125816e-11       4.049256334220e-12      -1.062951423143e-14 
   64       2.507260717534e-10       3.655838401510e-14      -5.450431524027e-13       0.000000000000e+00       2.640206427155e-11       3.916680071058e-12      -1.054656646339e-14 
   65       2.542477593483e-10       3.824204668081e-14      -6.003951874488e-13       0.000000000000e+00       2.545224823936e-11       3.790328517761e-12      -1.046355535207e-14 
   66       2.578035189861e-10       3.996215743449e-14      -6.576036014743e-13       0.000000000000e+00       2.454842547768e-11       3.669896117459e-12      -1.037165360389e-14 
   67       2.613907128889e-10       4.171786255361e-14      -7.166826658162e-13       0.000000000000e+00       2.368535793966e-11       3.554913593675e-12      -1.026086173684e-14 
   68       2.650067656365e-10       4.350823935681e-14      -7.776400533981e-13       0.000000000000e+00       2.285777949574e-11       3.444881327977e-12      -1.012280574116e-14 
   69       2.686527119096e-10       4.533231383499e-14      -8.404506963317e-13       0.000000000000e+00       2.206505454786e-11       3.339719322407e-12      -9.959890987884e-15 
   70       2.723302693783e-10       4.718904425489e-14      -9.050778443058e-13       0.000000000000e+00       2.130734380164e-11       3.239394005249e-12      -9.777929165846e-15 
   71       2.760407607357e-10       4.907731448069e-14      -9.714806429711e-13       0.000000000000e+00       2.058419549721e-11       3.143780120908e-12      -9.583485132656e-15 
   72       2.797850856687e-10       5.099593281318e-14      -1.039614058423e-12       0.000000000000e+00       1.989451380700e-11       3.052656099777e-12      -9.383903716837e-15 
   73       2.835636928289e-10       5.294363082904e-14      -1.109428801686e-12       0.000000000000e+00       1.923652723359e-11       2.965699428093e-12      -9.187336519964e-15 
   74       2.873765518040e-10       5.491906222009e-14      -1.180871253194e-12       0.000000000000e+00       1.860775700757e-11       2.882482017801e-12      -9.002768718810e-15 
   75       2.912231250879e-10       5.692080163250e-14      -1.253883387276e-12       0.000000000000e+00       1.800498548535e-11       2.802465576409e-12      -8.840045867479e-15 
   76       2.951027980535e-10       5.894737442845e-14      -1.328407648192e-12       0.000000000000e+00       1.742505095941e-11       2.725134407151e-12      -8.707525138806e-15 
   77       2.990163213465e-10       6.099735480224e-14      -1.404402771701e-12       0.000000000000e+00       1.686746927477e-11       2.650432002448e-12      -8.604475326205e-15 
   78       3.029645818179e-10       6.306928353039e-14      -1.481830724841e-12       0.000000000000e+00       1.633223508325e-11       2.578396023231e-12      -8.527333200704e-15 
   79       3.069481495211e-10       6.516163811840e-14      -1.560652035920e-12       0.000000000000e+00       1.581902342332e-11       2.509026148887e-12      -8.471934567148e-15 
   80       3.109672590749e-10       6.727283227410e-14      -1.640825820539e-12       0.000000000000e+00       1.532717506413e-11       2.442282265243e-12      -8.433492353551e-15 
   81       3.150217910259e-10       6.940121538097e-14      -1.722309807608e-12       0.000000000000e+00       1.485568184967e-11       2.378082652543e-12      -8.406574700434e-15 
   82       3.191112532111e-10       7.154507197148e-14      -1.805060365368e-12       0.000000000000e+00       1.440317204283e-11       2.316302173425e-12      -8.385083050168e-15 
   83       3.232347621208e-10       7.370262120043e-14      -1.889032527406e-12       0.000000000000e+00       1.396789566953e-11       2.256770460906e-12      -8.362230236318e-15 
   84       3.273914143125e-10       7.587204278208e-14      -1.974178756225e-12       0.000000000000e+00       1.354814741092e-11       2.199315682243e-12      -8.331912087223e-15 
   85       3.315815122232e-10       7.805156089560e-14      -2.060444941449e-12       0.000000000000e+00       1.314364793448e-11       2.143908135688e-12      -8.293131489336e-15 
   86       3.358055083453e-10       8.023937328845e-14      -2.147773782825e-12       0.000000000000e+00       1.275436575222e-11       2.090537247468e-12      -8.246270977781e-15 
   87       3.400636213391e-10       8.243362596859e-14      -2.236105998417e-12       0.000000000000e+00       1.238009283830e-11       2.039167081841e-12      -8.191765918667e-15 
   88       3.443558239506e-10       8.463241312261e-14      -2.325380329407e-12       0.000000000000e+00       1.202043732692e-11       1.989735295058e-12      -8.130106018837e-15 
   89       3.486818309303e-10       8.683377703380e-14      -2.415533544900e-12       0.000000000000e+00       1.167481621011e-11       1.942152089323e-12      -8.061836835620e-15 
   90       3.530410869510e-10       8.903570800032e-14      -2.506500446720e-12       0.000000000000e+00       1.134244803564e-11       1.896299166753e-12      -7.987561286578e-15 
   91       3.574327545257e-10       9.123614425323e-14      -2.598213874214e-12       0.000000000000e+00       1.102234560480e-11       1.852028683340e-12      -7.907941159257e-15 
   92       3.618557019261e-10       9.343297187466e-14      -2.690604709051e-12       0.000000000000e+00       1.071330867031e-11       1.809162202914e-12      -7.823698620940e-15 
   93       3.663088399242e-10       9.562406989109e-14      -2.783602905792e-12       0.000000000000e+00       1.041420712990e-11       1.767533691692e-12      -7.735600742840e-15 
   94       3.707922161940e-10       9.780745348931e-14      -2.877140750467e-12       0.000000000000e+00       1.012489518921e-11       1.727128170903e-12      -7.644407130955e-15 
   95       3.753060639357e-10       9.998115228896e-14      -2.971150103245e-12       0.000000000000e+00       9.845421827862e-12       1.687962080539e-12      -7.550917173616e-15 
   96       3.798504605221e-10       1.021431676176e-13      -3.065561434960e-12       0.000000000000e+00       9.575749284186e-12       1.650040661256e-12      -7.455987584733e-15 
   97       3.844253202048e-10       1.042914730487e-13      -3.160303845999e-12       0.000000000000e+00       9.315749740667e-12       1.613357512867e-12      -7.360533680386e-15 
   98       3.890303868209e-10       1.064240149404e-13      -3.255305085180e-12       0.000000000000e+00       9.065202009378e-12       1.577894152846e-12      -7.265530655414e-15 
   99       3.936652264993e-10       1.085387129729e-13      -3.350491568632e-12       0.000000000000e+00       8.823788217409e-12       1.543619574827e-12      -7.172014860012e-15 
  100       3.983292203667e-10       1.106334606875e-13      -3.445788398682e-12       0.000000000000e+00       8.591090492310e-12       1.510489807100e-12      -7.081085076320e-15 
  101       4.030215572545e-10       1.127061260243e-13      -3.541119382730e-12       0.000000000000e+00       8.366587647523e-12       1.478447471109e-12      -6.993903795015e-15 
  102       4.077412264049e-10       1.147545518606e-13      -3.636407052137e-12       0.000000000000e+00       8.149651867816e-12       1.447421339956e-12      -6.911698491904e-15 
  103       4.124870101771e-10       1.167765565491e-13      -3.731572681100e-12       0.000000000000e+00       7.939545394722e-12       1.417325896896e-12      -6.835762904517e-15 
  104       4.172577225880e-10       1.187699870945e-13      -3.826537110764e-12       0.000000000000e+00       7.735586870963e-12       1.388081032654e-12      -6.767129947829e-15 
  105       4.220529773411e-10       1.207328857046e-13      -3.921223307651e-12       0.000000000000e+00       7.537683104232e-12       1.359675118652e-12      -6.705537391183e-15 
  106       4.268725104322e-10       1.226633468460e-13      -4.015554187645e-12       0.000000000000e+00       7.345863292056e-12       1.332109670639e-12      -6.650324188887e-15 
  107       4.317159390441e-10       1.245594677180e-13      -4.109451869026e-12       0.000000000000e+00       7.160114344756e-12       1.305379753177e-12      -6.600744060460e-15 
