# Matter power spectrum P(k) at redshift z=0
# for k=9.0192e-06 to 20.5861 h/Mpc,
# number of wavenumbers equal to 855
#    1:k (h/Mpc)              2:P (Mpc/h)^3        
       9.019201454174e-06       7.364120533859e+01 
       2.013437232318e-05       1.597263106373e+02 
       3.127867019624e-05       2.442393350239e+02 
       4.247440903451e-05       3.280312236267e+02 
       5.374417827534e-05       4.115624326554e+02 
       6.511099296095e-05       4.951626800192e+02 
       7.659844748270e-05       5.791030753737e+02 
       8.823087449441e-05       6.636251037942e+02 
       1.000335105604e-04       7.489549823505e+02 
       1.120326701213e-04       8.353119157846e+02 
       1.242559293744e-04       9.229134441108e+02 
       1.367323216761e-04       1.011979278706e+03 
       1.494925460608e-04       1.102734308631e+03 
       1.625691904350e-04       1.195411133196e+03 
       1.759969709228e-04       1.290252329175e+03 
       1.898129886899e-04       1.387512570707e+03 
       2.040570053356e-04       1.487460678818e+03 
       2.187717375774e-04       1.590381639426e+03 
       2.340031714211e-04       1.696578618279e+03 
       2.498008952548e-04       1.806374982136e+03 
       2.662184502690e-04       1.920116306990e+03 
       2.833136952002e-04       2.038172368137e+03 
       3.011491805457e-04       2.160939060176e+03 
       3.197925249974e-04       2.288840192379e+03 
       3.393167837950e-04       2.422329079454e+03 
       3.598007949172e-04       2.561889819447e+03 
       3.813294844476e-04       2.708038120105e+03 
       4.039941070762e-04       2.861321500898e+03 
       4.278923916126e-04       3.022318659792e+03 
       4.531285548632e-04       3.191637761083e+03 
       4.798131407256e-04       3.369913364794e+03 
       5.080626356595e-04       3.557801683846e+03 
       5.379988079316e-04       3.755973881144e+03 
       5.697477177126e-04       3.965107074906e+03 
       6.034383500518e-04       4.185872884890e+03 
       6.392008349528e-04       4.418923327069e+03 
       6.771642399587e-04       4.664874163124e+03 
       7.174539518240e-04       4.924285977400e+03 
       7.601887045194e-04       5.197643493155e+03 
       8.054773583407e-04       5.485334124788e+03 
       8.534155840436e-04       5.787626822424e+03 
       9.040826490048e-04       6.104652922321e+03 
       9.575385302735e-04       6.436390192158e+03 
       1.013821583378e-03       6.782652127029e+03 
       1.072946970199e-03       7.143083344501e+03 
       1.134905993731e-03       7.517161930380e+03 
       1.199666408215e-03       7.904209097994e+03 
       1.237685953032e-03       8.129567368214e+03 
       1.267173681764e-03       8.303405150349e+03 
       1.337353100265e-03       8.713810595634e+03 
       1.410112530429e-03       9.134391156564e+03 
       1.485345616560e-03       9.564044126246e+03 
       1.562935173802e-03       1.000162520059e+04 
       1.642756557639e-03       1.044597388306e+04 
       1.724680827698e-03       1.089593623370e+04 
       1.808577573914e-03       1.135038457803e+04 
       1.894317325288e-03       1.180823389179e+04 
       1.981773508839e-03       1.226845373982e+04 
       2.070823964317e-03       1.273007685014e+04 
       2.161352047312e-03       1.319220350919e+04 
       2.253247369975e-03       1.365400492654e+04 
       2.346406236227e-03       1.411472384106e+04 
       2.440731829417e-03       1.457367082602e+04 
       2.536134206954e-03       1.503022508376e+04 
       2.632530150392e-03       1.548382829396e+04 
       2.729842912233e-03       1.593398262392e+04 
       2.828001893341e-03       1.638024382164e+04 
       2.926942277899e-03       1.682222211667e+04 
       3.026604646696e-03       1.725957068405e+04 
       3.126934584318e-03       1.769199075718e+04 
       3.227882291507e-03       1.811921745371e+04 
       3.329402210537e-03       1.854102542436e+04 
       3.431452668786e-03       1.895722040730e+04 
       3.533995543625e-03       1.936763485368e+04 
       3.636995950267e-03       1.977213229539e+04 
       3.740421953082e-03       2.017059392139e+04 
       3.844244300126e-03       2.056292707157e+04 
       3.948436180119e-03       2.094905270376e+04 
       4.052973000729e-03       2.132891461018e+04 
       4.157832186856e-03       2.170246196018e+04 
       4.262992997494e-03       2.206966612512e+04 
       4.368436359704e-03       2.243050837364e+04 
       4.474144718296e-03       2.278497624066e+04 
       4.580101899811e-03       2.313306620473e+04 
       4.686292989519e-03       2.347478677881e+04 
       4.792704220213e-03       2.381015853891e+04 
       4.899322871658e-03       2.413919526223e+04 
       5.006137179679e-03       2.446192863664e+04 
       5.113136253919e-03       2.477838849753e+04 
       5.220310003429e-03       2.508861633412e+04 
       5.327649069297e-03       2.539264518014e+04 
       5.435144763619e-03       2.569052371472e+04 
       5.542789014175e-03       2.598230576383e+04 
       5.650574314243e-03       2.626802735557e+04 
       5.758493677037e-03       2.654775670601e+04 
       5.866540594312e-03       2.682153118568e+04 
       5.974708998718e-03       2.708941633231e+04 
       6.082993229540e-03       2.735146625990e+04 
       6.191388001486e-03       2.760774220874e+04 
       6.299888376236e-03       2.785829033455e+04 
       6.408489736469e-03       2.810318313560e+04 
       6.517187762150e-03       2.834248930129e+04 
       6.625978408838e-03       2.857625442558e+04 
       6.734857887851e-03       2.880453959750e+04 
       6.843822648090e-03       2.902741120813e+04 
       6.952869359376e-03       2.924493348341e+04 
       7.061994897172e-03       2.945716603666e+04 
       7.171196328541e-03       2.966417267849e+04 
       7.280470899244e-03       2.986601893655e+04 
       7.389816021878e-03       3.006274211736e+04 
       7.499229264944e-03       3.025443032509e+04 
       7.608708342784e-03       3.044114510043e+04 
       7.718251106291e-03       3.062294017873e+04 
       7.827855534349e-03       3.079987255838e+04 
       7.937519725913e-03       3.097200306838e+04 
       8.047241892697e-03       3.113939509779e+04 
       8.157020352409e-03       3.130210629065e+04 
       8.266853522487e-03       3.146018858343e+04 
       8.376739914299e-03       3.161370506129e+04 
       8.486678127766e-03       3.176271432205e+04 
       8.596666846377e-03       3.190728370405e+04 
       8.706704832558e-03       3.204745770692e+04 
       8.816790923377e-03       3.218328843190e+04 
       8.926924026550e-03       3.231484747962e+04 
       9.037103116728e-03       3.244217375925e+04 
       9.147327232045e-03       3.256533321539e+04 
       9.257595470906e-03       3.268437777243e+04 
       9.367906988995e-03       3.279935764300e+04 
       9.478260996488e-03       3.291032767219e+04 
       9.588656755457e-03       3.301733253522e+04 
       9.699093577455e-03       3.312044700177e+04 
       9.809570821253e-03       3.321969691770e+04 
       9.920087890742e-03       3.331514032805e+04 
       1.003064423297e-02       3.340683303170e+04 
       1.014123933630e-02       3.349482015442e+04 
       1.025187272874e-02       3.357915068532e+04 
       1.036254397627e-02       3.365987947332e+04 
       1.047325268145e-02       3.373704813730e+04 
       1.058399848198e-02       3.381071261776e+04 
       1.069478104937e-02       3.388091939396e+04 
       1.080560008783e-02       3.394770588676e+04 
       1.091645533304e-02       3.401112478457e+04 
       1.102734655117e-02       3.407121969747e+04 
       1.113827353786e-02       3.412803486705e+04 
       1.124923611732e-02       3.418162276404e+04 
       1.136023414150e-02       3.423201128886e+04 
       1.147126748927e-02       3.427924316123e+04 
       1.158233606570e-02       3.432339698040e+04 
       1.169343980138e-02       3.436447598603e+04 
       1.180457865178e-02       3.440254964046e+04 
       1.191575259669e-02       3.443763479668e+04 
       1.202696163964e-02       3.446978714181e+04 
       1.213820580743e-02       3.449904958560e+04 
       1.224948514968e-02       3.452545626420e+04 
       1.236079973837e-02       3.454906366733e+04 
       1.237685953032e-02       3.455222514143e+04 
       1.247214966748e-02       3.456988387108e+04 
       1.258353505266e-02       3.458798783218e+04 
       1.269495603087e-02       3.460338638623e+04 
       1.280641276012e-02       3.461613992581e+04 
       1.291790541920e-02       3.462626963321e+04 
       1.302943420746e-02       3.463383003512e+04 
       1.314099934461e-02       3.463884473346e+04 
       1.325260107051e-02       3.464136046250e+04 
       1.336423964509e-02       3.464140735672e+04 
       1.347591534813e-02       3.463902507963e+04 
       1.358762847924e-02       3.463425873432e+04 
       1.369937935772e-02       3.462711891737e+04 
       1.381116832253e-02       3.461766871920e+04 
       1.392299573225e-02       3.460592587462e+04 
       1.403486196504e-02       3.459193575136e+04 
       1.414676741865e-02       3.457571875891e+04 
       1.425871251047e-02       3.455734372391e+04 
       1.437069767751e-02       3.453680383496e+04 
       1.448272337650e-02       3.451414155963e+04 
       1.459479008397e-02       3.448940926244e+04 
       1.470689829629e-02       3.446260703155e+04 
       1.481904852984e-02       3.443381674885e+04 
       1.493124132110e-02       3.440301755270e+04 
       1.504347722680e-02       3.437029024608e+04 
       1.515575682410e-02       3.433561708929e+04 
       1.526808071071e-02       3.429906447165e+04 
       1.538044950514e-02       3.426065196705e+04 
       1.549286384690e-02       3.422042317721e+04 
       1.560532439667e-02       3.417837702286e+04 
       1.571783183662e-02       3.413458066452e+04 
       1.583038687058e-02       3.408905103190e+04 
       1.594299022439e-02       3.404180610988e+04 
       1.605564264613e-02       3.399289072648e+04 
       1.616834490645e-02       3.394231612990e+04 
       1.628109779887e-02       3.389012578534e+04 
       1.639390214014e-02       3.383634687684e+04 
       1.650675877056e-02       3.378100390251e+04 
       1.661966855437e-02       3.372411319201e+04 
       1.673263238013e-02       3.366574463473e+04 
       1.684565116109e-02       3.360586562722e+04 
       1.695872583566e-02       3.354458809839e+04 
       1.707185736779e-02       3.348182159377e+04 
       1.718504674747e-02       3.341767380274e+04 
       1.729829499114e-02       3.335217726601e+04 
       1.741160314223e-02       3.328531380945e+04 
       1.752497227163e-02       3.321712869534e+04 
       1.763840347825e-02       3.314768541858e+04 
       1.775189788949e-02       3.307693433873e+04 
       1.786545666187e-02       3.300495882412e+04 
       1.797908098160e-02       3.293176475767e+04 
       1.809277206515e-02       3.285739246282e+04 
       1.820653115987e-02       3.278184830877e+04 
       1.832035954466e-02       3.270511937987e+04 
       1.843425853064e-02       3.262732185445e+04 
       1.854822946178e-02       3.254839765997e+04 
       1.866227371567e-02       3.246841811391e+04 
       1.877639270420e-02       3.238735222901e+04 
       1.889058787436e-02       3.230534338791e+04 
       1.900486070897e-02       3.222224014017e+04 
       1.911921272753e-02       3.213818392892e+04 
       1.923364548703e-02       3.205321487461e+04 
       1.934816058281e-02       3.196724195112e+04 
       1.946275964942e-02       3.188043496009e+04 
       1.957744436158e-02       3.179268066096e+04 
       1.969221643508e-02       3.170403406925e+04 
       1.980707762778e-02       3.161454241437e+04 
       1.992202974060e-02       3.152427734063e+04 
       2.003707461854e-02       3.143316740542e+04 
       2.015221415178e-02       3.134130914400e+04 
       2.026745027677e-02       3.124862978580e+04 
       2.038278497735e-02       3.115523943501e+04 
       2.049822028594e-02       3.106112112349e+04 
       2.061375828477e-02       3.096625886881e+04 
       2.072940110709e-02       3.087072230869e+04 
       2.084515093849e-02       3.077454997764e+04 
       2.096101001822e-02       3.067767808366e+04 
       2.107698064060e-02       3.058020279739e+04 
       2.119306515638e-02       3.048209989370e+04 
       2.130926597426e-02       3.038335757084e+04 
       2.142558556241e-02       3.028413855485e+04 
       2.154202644997e-02       3.018433076325e+04 
       2.165859122876e-02       3.008394006058e+04 
       2.177528255490e-02       2.998305382591e+04 
       2.189210315054e-02       2.988165054602e+04 
       2.200905580565e-02       2.977979793216e+04 
       2.212614337989e-02       2.967737173694e+04 
       2.224336880449e-02       2.957455919966e+04 
       2.236073508425e-02       2.947127553334e+04 
       2.247824529957e-02       2.936759266925e+04 
       2.259590260856e-02       2.926349039666e+04 
       2.271371024925e-02       2.915904168627e+04 
       2.283167154183e-02       2.905414137243e+04 
       2.294978989100e-02       2.894888340038e+04 
       2.306806878841e-02       2.884329683884e+04 
       2.318651181515e-02       2.873745054768e+04 
       2.330512264439e-02       2.863117926543e+04 
       2.342390504404e-02       2.852460586938e+04 
       2.354286287957e-02       2.841777990950e+04 
       2.366200011688e-02       2.831059030265e+04 
       2.378132082533e-02       2.820329001426e+04 
       2.390082918088e-02       2.809561927124e+04 
       2.402052946923e-02       2.798772448691e+04 
       2.414042608930e-02       2.787966958690e+04 
       2.426052355659e-02       2.777134051301e+04 
       2.438082650687e-02       2.766291784697e+04 
       2.450133969992e-02       2.755416087668e+04 
       2.462206802339e-02       2.744527376082e+04 
       2.474301649691e-02       2.733626296438e+04 
       2.486419027623e-02       2.722707157624e+04 
       2.498559465764e-02       2.711777297285e+04 
       2.510723508253e-02       2.700827137539e+04 
       2.522911714207e-02       2.689871703977e+04 
       2.535124658217e-02       2.678902412780e+04 
       2.547362930863e-02       2.667921323404e+04 
       2.559627139240e-02       2.656938570359e+04 
       2.571917907523e-02       2.645945565246e+04 
       2.584235877539e-02       2.634938312443e+04 
       2.596581709374e-02       2.623929714489e+04 
       2.608956082001e-02       2.612915045592e+04 
       2.621359693938e-02       2.601902040606e+04 
       2.633793263930e-02       2.590882103138e+04 
       2.646257531666e-02       2.579861547535e+04 
       2.658753258525e-02       2.568835440400e+04 
       2.671281228353e-02       2.557816194408e+04 
       2.683842248280e-02       2.546786488628e+04 
       2.696437149571e-02       2.535776363452e+04 
       2.709066788513e-02       2.524747262354e+04 
       2.721732047350e-02       2.513734560695e+04 
       2.734433835256e-02       2.502715850155e+04 
       2.747173089352e-02       2.491706717605e+04 
       2.759950775781e-02       2.480700411754e+04 
       2.772767890822e-02       2.469699516631e+04 
       2.785625462066e-02       2.458701935065e+04 
       2.798524549648e-02       2.447724052926e+04 
       2.811466247535e-02       2.436739925884e+04 
       2.824451684888e-02       2.425778970664e+04 
       2.837482027479e-02       2.414807146536e+04 
       2.850558479194e-02       2.403852134612e+04 
       2.863682283602e-02       2.392909592978e+04 
       2.876854725609e-02       2.381970627418e+04 
       2.890077133202e-02       2.371047929994e+04 
       2.903350879283e-02       2.360134754869e+04 
       2.916677383594e-02       2.349234423893e+04 
       2.930058114758e-02       2.338341649147e+04 
       2.943494592425e-02       2.327458901030e+04 
       2.956988389536e-02       2.316600687987e+04 
       2.970541134711e-02       2.305739387609e+04 
       2.984154514783e-02       2.294899759875e+04 
       2.997830277459e-02       2.284078029448e+04 
       3.011570234153e-02       2.273266130318e+04 
       3.025376262967e-02       2.262461105484e+04 
       3.039250311863e-02       2.251679363602e+04 
       3.053194402011e-02       2.240908693867e+04 
       3.067210631353e-02       2.230155529838e+04 
       3.081301178370e-02       2.219412592899e+04 
       3.095468306095e-02       2.208684461146e+04 
       3.109714366369e-02       2.197973920286e+04 
       3.124041804370e-02       2.187277634664e+04 
       3.138453163433e-02       2.176596966260e+04 
       3.152951090180e-02       2.165932684564e+04 
       3.167538339992e-02       2.155278607358e+04 
       3.182217782843e-02       2.144645092918e+04 
       3.196992409528e-02       2.134024081456e+04 
       3.211865338317e-02       2.123415202407e+04 
       3.226839822072e-02       2.112820779386e+04 
       3.241919255863e-02       2.102249337625e+04 
       3.257107185125e-02       2.091685223443e+04 
       3.272407314408e-02       2.081137141913e+04 
       3.287823516760e-02       2.070596217096e+04 
       3.303359843821e-02       2.060083733205e+04 
       3.319020536659e-02       2.049572786084e+04 
       3.334810037451e-02       2.039073848714e+04 
       3.350733002060e-02       2.028597274917e+04 
       3.366794313606e-02       2.018132470847e+04 
       3.382999097124e-02       2.007678289959e+04 
       3.399352735407e-02       1.997222841815e+04 
       3.415860886157e-02       1.986790559704e+04 
       3.432529500575e-02       1.976369408947e+04 
       3.449364843534e-02       1.965949540244e+04 
       3.466373515488e-02       1.955542847091e+04 
       3.483562476319e-02       1.945153620678e+04 
       3.500939071309e-02       1.934764598037e+04 
       3.518511059478e-02       1.924376769259e+04 
       3.536286644542e-02       1.914006910564e+04 
       3.554274508785e-02       1.903624039028e+04 
       3.572483850181e-02       1.893261455493e+04 
       3.590924423139e-02       1.882889004288e+04 
       3.609606583291e-02       1.872540144166e+04 
       3.628541336829e-02       1.862173400228e+04 
       3.647740394922e-02       1.851811129985e+04 
       3.667216233868e-02       1.841448466699e+04 
       3.686982161695e-02       1.831077315343e+04 
       3.707052392060e-02       1.820705109784e+04 
       3.727442126399e-02       1.810327465659e+04 
       3.748167645451e-02       1.799937340611e+04 
       3.769246411437e-02       1.789540806770e+04 
       3.790697182412e-02       1.779130887075e+04 
       3.812540140511e-02       1.768711384223e+04 
       3.834797036152e-02       1.758263891645e+04 
       3.857491350587e-02       1.747803117733e+04 
       3.880648479604e-02       1.737327752843e+04 
       3.904295941716e-02       1.726814372440e+04 
       3.928463614761e-02       1.716285608803e+04 
       3.953184005601e-02       1.705719945018e+04 
       3.978492558473e-02       1.695121043290e+04 
       4.004428008681e-02       1.684483028719e+04 
       4.031032789653e-02       1.673807322606e+04 
       4.058353503013e-02       1.663080951149e+04 
       4.086441463424e-02       1.652303693497e+04 
       4.115353332438e-02       1.641468114204e+04 
       4.145151858783e-02       1.630568578399e+04 
       4.175906746475e-02       1.619600120140e+04 
       4.207695677096e-02       1.608552679465e+04 
       4.240605518850e-02       1.597418782338e+04 
       4.274733762948e-02       1.586192446446e+04 
       4.310190237925e-02       1.574855742645e+04 
       4.347099165291e-02       1.563404711433e+04 
       4.385601636264e-02       1.551821676854e+04 
       4.425858610119e-02       1.540090749686e+04 
       4.468054561138e-02       1.528195147392e+04 
       4.512401934694e-02       1.516117056945e+04 
       4.559146614893e-02       1.503815220794e+04 
       4.608574657885e-02       1.491275517273e+04 
       4.661020606377e-02       1.478456594349e+04 
       4.716877769811e-02       1.465310786922e+04 
