# dimensionless total lensed [l(l+1)/2pi] C_l's
# for l=2 to 5500, i.e. number of multipoles equal to 5499
#
# -> if you prefer output in CAMB/HealPix/LensPix units/order, set 'format' to 'camb' in input file
# -> if you don't want to see such a header, set 'headers' to 'no' in input file
# -> for CMB lensing (phi), these are C_l^phi-phi for the lensing potential.
#    Remember the conversion factors:
#    C_l^dd (deflection) = l(l+1) C_l^phi-phi
#    C_l^gg (shear/convergence) = 1/4 (l(l+1))^2 C_l^phi-phi
#
# 1:l     2:TT                     3:EE                     4:TE                     5:BB                     6:phiphi                 7:TPhi                   8:Ephi               
    2       1.948924780972e-10       4.470193826300e-15       3.052512563558e-13       1.808339846247e-19       6.655474178661e-09       6.852335548064e-10      -1.814724374329e-12 
    3       1.729844980020e-10       5.127354570152e-15       3.636024355961e-13       3.617616430662e-19       4.130985995420e-09       4.722101553922e-10      -1.280976875393e-12 
    4       1.563628199602e-10       3.880710861120e-15       3.432874211204e-13       6.031418878131e-19       2.880260146799e-09       3.506882656756e-10      -7.378919272311e-13 
    5       1.446543313133e-10       2.268255159099e-15       2.900076119139e-13       9.050931669195e-19       2.151259525896e-09       2.731290531757e-10      -3.186045928918e-13 
    6       1.366019687680e-10       1.179840696157e-15       2.305108130341e-13       1.267758188496e-18       1.679493315874e-09       2.198245004842e-10      -4.702769901920e-14 
    7       1.310817177462e-10       6.866682506706e-16       1.793858546564e-13       1.691300647538e-18       1.353257246324e-09       1.812665624711e-10       9.166623458182e-14 
    8       1.274115507593e-10       5.056101792392e-16       1.422630520806e-13       2.175901577169e-18       1.116979440200e-09       1.523612005901e-10       1.307850591400e-13 
    9       1.250686918744e-10       4.097917499548e-16       1.195978202145e-13       2.721755457231e-18       9.396706516873e-10       1.301379784767e-10       1.092530646527e-13 
   10       1.236987150516e-10       3.310286512633e-16       1.091440476719e-13       3.329066220453e-18       8.025737687802e-10       1.126490592035e-10       6.239900862519e-14 
   11       1.230879634593e-10       2.791134772405e-16       1.075005706973e-13       3.998043297930e-18       6.846649014904e-10       9.900246292300e-11       1.667365565732e-14 
   12       1.229690747646e-10       2.611470232119e-16       1.113562702373e-13       4.728897841528e-18       5.979155702501e-10       8.724526530085e-11      -1.480885795625e-14 
   13       1.232870638770e-10       2.670505966838e-16       1.180818543294e-13       5.521839251019e-18       5.266679936465e-10       7.741243789959e-11      -2.787561552420e-14 
   14       1.239882782491e-10       2.878922937708e-16       1.259156072223e-13       6.377072118919e-18       4.673608482484e-10       6.908665659261e-11      -2.614656348634e-14 
   15       1.249769111812e-10       3.244904537037e-16       1.341183272989e-13       7.294793686553e-18       4.174277538397e-10       6.209453621835e-11      -1.637365642918e-14 
   16       1.262084160179e-10       3.810339449294e-16       1.425278927273e-13       8.275191881838e-18       3.749668121748e-10       5.609357705213e-11      -5.556883923747e-15 
   17       1.276157767719e-10       4.586890504384e-16       1.512693009579e-13       9.318443983414e-18       3.385404667523e-10       5.087143019304e-11       1.542344850931e-15 
   18       1.291830344089e-10       5.556408923269e-16       1.606899443712e-13       1.042471562924e-17       3.069286470517e-10       4.632285344278e-11       3.138938633463e-15 
   19       1.309264907140e-10       6.713660854267e-16       1.708055731299e-13       1.159416225290e-17       2.796223634284e-10       4.239291844293e-11       2.141376691504e-16 
   20       1.327992694724e-10       8.054443242611e-16       1.814075943654e-13       1.282692634533e-17       2.555789610534e-10       3.893089316287e-11      -4.926523691286e-15 
   21       1.347869203364e-10       9.579730508400e-16       1.921643696125e-13       1.412314292591e-17       2.344207848368e-10       3.585921782161e-11      -1.010703265006e-14 
   22       1.368535550290e-10       1.129097145172e-15       2.026260638148e-13       1.548293639047e-17       2.156390800592e-10       3.308091425793e-11      -1.315970528621e-14 
   23       1.390173424794e-10       1.319486480043e-15       2.123729466240e-13       1.690642721373e-17       1.989750587979e-10       3.059426136715e-11      -1.370320471891e-14 
   24       1.412862284399e-10       1.530156382157e-15       2.210199301457e-13       1.839372876085e-17       1.840437238406e-10       2.839406911319e-11      -1.216004844669e-14 
   25       1.436451426134e-10       1.763176702995e-15       2.285569585167e-13       1.994495522509e-17       1.706682201582e-10       2.644309308840e-11      -9.515704891223e-15 
   26       1.460567802195e-10       2.020917147500e-15       2.351140702545e-13       2.156021788276e-17       1.586050566331e-10       2.467449948487e-11      -7.041852653821e-15 
   27       1.485228862447e-10       2.304746076139e-15       2.407507119267e-13       2.323963195789e-17       1.477093577182e-10       2.306005167891e-11      -5.511555118881e-15 
   28       1.510459415395e-10       2.615694977103e-15       2.455061051439e-13       2.498331395945e-17       1.377934358296e-10       2.157365042145e-11      -5.431939724503e-15 
   29       1.536316549821e-10       2.954884185716e-15       2.493438864185e-13       2.679138968539e-17       1.288057993484e-10       2.021348745112e-11      -6.466682438180e-15 
   30       1.562724295049e-10       3.323413754983e-15       2.522033663941e-13       2.866398859884e-17       1.206486826040e-10       1.897379509052e-11      -7.865911656901e-15 
   31       1.589497723858e-10       3.722351736063e-15       2.540054563536e-13       3.060124312596e-17       1.131543605486e-10       1.783847958929e-11      -8.830296498977e-15 
   32       1.616698067051e-10       4.152860822277e-15       2.545992977971e-13       3.260329395955e-17       1.062836136439e-10       1.680204101372e-11      -9.185767287859e-15 
   33       1.644383195786e-10       4.616112114207e-15       2.537922776564e-13       3.467028764011e-17       9.998762670676e-11       1.585435955295e-11      -8.958008594364e-15 
   34       1.672538010161e-10       5.113205158159e-15       2.514067847389e-13       3.680237439259e-17       9.417798860353e-11       1.497913521377e-11      -8.235281052585e-15 
   35       1.701199020011e-10       5.645015364226e-15       2.474375494707e-13       3.899970339775e-17       8.882444615020e-11       1.417110224531e-11      -7.288155621686e-15 
   36       1.730354927204e-10       6.212282235816e-15       2.419510958224e-13       4.126242664259e-17       8.388339886271e-11       1.342360125369e-11      -6.500336254010e-15 
   37       1.759939901203e-10       6.815711949621e-15       2.350190621465e-13       4.359069512949e-17       7.928981727586e-11       1.272682600362e-11      -6.232403780040e-15 
   38       1.789957029900e-10       7.456217289585e-15       2.266241935851e-13       4.598464014841e-17       7.503142750908e-11       1.207942505570e-11      -6.442027220397e-15 
   39       1.820382321402e-10       8.134750846469e-15       2.167243491253e-13       4.844438601656e-17       7.109438126681e-11       1.148003573538e-11      -6.937928699744e-15 
   40       1.851122972800e-10       8.852238797714e-15       2.052774336211e-13       5.097005503653e-17       6.744070587271e-11       1.092378058354e-11      -7.477129074834e-15 
   41       1.882063177901e-10       9.609552990283e-15       1.922382279322e-13       5.356175915973e-17       6.402143896389e-11       1.040396294795e-11      -7.828281876524e-15 
   42       1.913235788554e-10       1.040742002677e-14       1.775480908298e-13       5.621957182900e-17       6.082622549099e-11       9.918564512327e-12      -7.994762612260e-15 
   43       1.944695119543e-10       1.124647994582e-14       1.611415878582e-13       5.894354688829e-17       5.784633002974e-11       9.465339973386e-12      -8.058397307344e-15 
   44       1.976466072863e-10       1.212730670039e-14       1.429487975352e-13       6.173372547290e-17       5.505976034497e-11       9.039823680053e-12      -8.120068932431e-15 
   45       2.008556490840e-10       1.305040377838e-14       1.229029480515e-13       6.459013042727e-17       5.243905097322e-11       8.636858875417e-12      -8.275347320182e-15 
   46       2.041006089199e-10       1.401619751143e-14       1.009669741699e-13       6.751274903934e-17       4.997987106027e-11       8.256137569565e-12      -8.529993079423e-15 
   47       2.073846761024e-10       1.502503598490e-14       7.711423260527e-14       7.050154408284e-17       4.767917736920e-11       7.898023104536e-12      -8.861140055948e-15 
   48       2.107086107027e-10       1.607718647995e-14       5.132123072351e-14       7.355645744115e-17       4.552658958011e-11       7.561919256018e-12      -9.240300987803e-15 
   49       2.140705159688e-10       1.717283201862e-14       2.356769671212e-14       7.667740919764e-17       4.350384587889e-11       7.246195551969e-12      -9.633042890530e-15 
   50       2.174671458365e-10       1.831213782672e-14      -6.166005037346e-15       7.986430227287e-17       4.159026089120e-11       6.948722985138e-12      -1.000564462989e-14 
   51       2.208987738661e-10       1.949548000601e-14      -3.790761765657e-14       8.311703993046e-17       3.978210905675e-11       6.668825839509e-12      -1.034795316953e-14 
   52       2.243652525269e-10       2.072327296048e-14      -7.168650016445e-14       8.643551145059e-17       3.807756160483e-11       6.405730573720e-12      -1.065617027688e-14 
   53       2.278644419489e-10       2.199590474281e-14      -1.075312335753e-13       8.981958636528e-17       3.647088832595e-11       6.157956865464e-12      -1.092641644075e-14 
   54       2.313920545763e-10       2.331373688970e-14      -1.454696756593e-13       9.326911380976e-17       3.495219562393e-11       5.923271654517e-12      -1.115473483011e-14 
   55       2.349436528845e-10       2.467697812082e-14      -1.855225523179e-13       9.678394231914e-17       3.351041525975e-11       5.699334571525e-12      -1.133749520816e-14 
   56       2.385215795677e-10       2.608526907076e-14      -2.276822419335e-13       1.003639864633e-16       3.214374013434e-11       5.485927268698e-12      -1.147271410754e-14 
   57       2.421294768572e-10       2.753799410717e-14      -2.719288165139e-13       1.040091756295e-16       3.085132215605e-11       5.283197405477e-12      -1.155906954909e-14 
   58       2.457702143894e-10       2.903439346023e-14      -3.182358505434e-13       1.077194351721e-16       2.963011633296e-11       5.090997178657e-12      -1.159554893651e-14 
   59       2.494458177454e-10       3.057355814364e-14      -3.665702239237e-13       1.114946865604e-16       2.847474547538e-11       4.908864302525e-12      -1.158146859782e-14 
   60       2.531573969893e-10       3.215442487550e-14      -4.168919249132e-13       1.153348475268e-16       2.737736489833e-11       4.736002988996e-12      -1.151649332683e-14 
   61       2.569055046227e-10       3.377593203908e-14      -4.691627387045e-13       1.192398552569e-16       2.632982221249e-11       4.571520212312e-12      -1.140175309902e-14 
   62       2.606914649986e-10       3.543753996316e-14      -5.233750379332e-13       1.232097417087e-16       2.533100928229e-11       4.415239502762e-12      -1.124344191985e-14 
   63       2.645162178577e-10       3.713881894279e-14      -5.795291342313e-13       1.272445755390e-16       2.438092791605e-11       4.267036897917e-12      -1.105006512956e-14 
   64       2.683798585558e-10       3.887929853456e-14      -6.376250460335e-13       1.313444414145e-16       2.347847915801e-11       4.126591073159e-12      -1.083146678784e-14 
   65       2.722815802275e-10       4.065846758723e-14      -6.976625834513e-13       1.355094408914e-16       2.262140081222e-11       3.993372421805e-12      -1.059888402781e-14 
   66       2.762196159503e-10       4.247577427235e-14      -7.596414331484e-13       1.397396932936e-16       2.180620496643e-11       3.866632135226e-12      -1.036500141001e-14 
   67       2.801911809092e-10       4.433062611484e-14      -8.235612432147e-13       1.440353365928e-16       2.102811551609e-11       3.745391282975e-12      -1.014400527632e-14 
   68       2.841935659791e-10       4.622231619022e-14      -8.894166544416e-13       1.483965213516e-16       2.028233232146e-11       3.628693558186e-12      -9.948593699772e-15 
   69       2.882278050680e-10       4.814978428260e-14      -9.571810353145e-13       1.528233891661e-16       1.956826078038e-11       3.516447392436e-12      -9.780181295562e-15 
   70       2.922956503897e-10       5.011180716362e-14      -1.026819588631e-12       1.573160914146e-16       1.888603098130e-11       3.408735642586e-12      -9.636798171459e-15 
   71       2.963984589151e-10       5.210706631940e-14      -1.098294069922e-12       1.618747964950e-16       1.823521886391e-11       3.305562921537e-12      -9.515935634455e-15 
   72       3.005371639849e-10       5.413414609285e-14      -1.171562743072e-12       1.664996905272e-16       1.761481767234e-11       3.206851421712e-12      -9.414522682727e-15 
   73       3.047122469210e-10       5.619153182592e-14      -1.246580335952e-12       1.711909780542e-16       1.702320940827e-11       3.112436738530e-12      -9.328902497596e-15 
   74       3.089237086393e-10       5.827760800193e-14      -1.323297996045e-12       1.759488827439e-16       1.645813628414e-11       3.022063693892e-12      -9.254808935494e-15 
   75       3.131710412618e-10       6.039065638780e-14      -1.401663246068e-12       1.807736480911e-16       1.591667217623e-11       2.935382159659e-12      -9.187343019925e-15 
   76       3.174536382632e-10       6.252892707572e-14      -1.481622579988e-12       1.856655101756e-16       1.539594237416e-11       2.852036859812e-12      -9.121839888812e-15 
   77       3.217721740101e-10       6.469087067070e-14      -1.563129895659e-12       1.906246086510e-16       1.489549745880e-11       2.771964914960e-12      -9.056704116917e-15 
   78       3.261274253815e-10       6.687494526516e-14      -1.646139526444e-12       1.956510607241e-16       1.441532245979e-11       2.695145220704e-12      -8.991051120932e-15 
   79       3.305198364698e-10       6.907954693876e-14      -1.730603746858e-12       2.007449877845e-16       1.395511397360e-11       2.621507069433e-12      -8.923857408656e-15 
   80       3.349494991855e-10       7.130300939561e-14      -1.816472782342e-12       2.059065155333e-16       1.351426696116e-11       2.550927900915e-12      -8.853955330473e-15 
   81       3.394161338623e-10       7.354360360135e-14      -1.903694819029e-12       2.111357741121e-16       1.309186154540e-11       2.483231052884e-12      -8.780027830815e-15 
   82       3.439190698611e-10       7.579953742035e-14      -1.992216013516e-12       2.164328982312e-16       1.268664980881e-11       2.418183511633e-12      -8.700603199640e-15 
   83       3.484572261752e-10       7.806895525281e-14      -2.081980502633e-12       2.217980272988e-16       1.229704259108e-11       2.355493662600e-12      -8.614049823901e-15 
   84       3.530295219680e-10       8.034995548615e-14      -2.172930529522e-12       2.272313169810e-16       1.192149158408e-11       2.294882194451e-12      -8.519169122455e-15 
   85       3.576362288678e-10       8.264064696800e-14      -2.265006824472e-12       2.327329758029e-16       1.155973731670e-11       2.236313244149e-12      -8.417098787553e-15 
   86       3.622778083370e-10       8.493910127343e-14      -2.358148305429e-12       2.383032348791e-16       1.121174481545e-11       2.179797624821e-12      -8.309716904551e-15 
   87       3.669544896809e-10       8.724333566071e-14      -2.452291978844e-12       2.439423373381e-16       1.087732023968e-11       2.125322074351e-12      -8.199076555695e-15 
   88       3.716662578783e-10       8.955131300776e-14      -2.547372951406e-12       2.496505386432e-16       1.055610432282e-11       2.072848235441e-12      -8.087410625102e-15 
   89       3.764128414121e-10       9.186094174875e-14      -2.643324441760e-12       2.554281069130e-16       1.024756581364e-11       2.022311635668e-12      -7.977136603728e-15 
   90       3.811937000995e-10       9.417007581063e-14      -2.740077792235e-12       2.612753232424e-16       9.950994917436e-12       1.973620667546e-12      -7.870861394345e-15 
   91       3.860080129228e-10       9.647651454965e-14      -2.837562480570e-12       2.671924820235e-16       9.665496737308e-12       1.926655568585e-12      -7.771386116517e-15 
   92       3.908546658594e-10       9.877800268796e-14      -2.935706131634e-12       2.731798912663e-16       9.389984715356e-12       1.881267401349e-12      -7.681710911570e-15 
   93       3.957325702669e-10       1.010722801933e-13      -3.034435058204e-12       2.792379039512e-16       9.123435819909e-12       1.837313530639e-12      -7.604289729095e-15 
   94       4.006416992466e-10       1.033572406375e-13      -3.133675950861e-12       2.853670167831e-16       8.865714256275e-12       1.794772373999e-12      -7.538656041048e-15 
   95       4.055821853738e-10       1.056307966488e-13      -3.233354465112e-12       2.915677869520e-16       8.616860092085e-12       1.753644104229e-12      -7.483447257224e-15 
   96       4.105539965021e-10       1.078908327042e-13      -3.333394733722e-12       2.978408031622e-16       8.376835623731e-12       1.713915178033e-12      -7.437117509236e-15 
   97       4.155569281317e-10       1.101352057519e-13      -3.433719385697e-12       3.041866863783e-16       8.145522410540e-12       1.675557817069e-12      -7.397932160111e-15 
   98       4.205905957767e-10       1.123617458333e-13      -3.534249565273e-12       3.106060905726e-16       7.922718308949e-12       1.638529489001e-12      -7.363962313881e-15 
   99       4.256544273334e-10       1.145682567049e-13      -3.634904950902e-12       3.170997034717e-16       7.708134506682e-12       1.602772388543e-12      -7.333079325182e-15 
  100       4.307476554482e-10       1.167525164608e-13      -3.735603774237e-12       3.236682473031e-16       7.501392556922e-12       1.568212918513e-12      -7.302949308843e-15 
  101       4.358693098853e-10       1.189122781546e-13      -3.836262839123e-12       3.303124795424e-16       7.302021412490e-12       1.534761170881e-12      -7.271027649481e-15 
  102       4.410182098949e-10       1.210452704214e-13      -3.936797540579e-12       3.370331936596e-16       7.109454460019e-12       1.502310407819e-12      -7.234553511096e-15 
  103       4.461929565812e-10       1.231491980999e-13      -4.037121883789e-12       3.438312198664e-16       6.923026554127e-12       1.470736542751e-12      -7.190544346666e-15 
  104       4.513921973598e-10       1.252217985411e-13      -4.137149603199e-12       3.507073702883e-16       6.742123334376e-12       1.439927148428e-12      -7.136493933200e-15 
  105       4.566154764571e-10       1.272610178554e-13      -4.236797651114e-12       3.576622644388e-16       6.566658535891e-12       1.409874061679e-12      -7.072585692409e-15 
  106       4.618624856073e-10       1.292648597444e-13      -4.335983217948e-12       3.646964814518e-16       6.396655927467e-12       1.380592378974e-12      -6.999769513587e-15 
  107       4.671327976367e-10       1.312313331597e-13      -4.434622704899e-12       3.718106136851e-16       6.232101509758e-12       1.352091854357e-12      -6.919087140906e-15 
