# Matter power spectrum P(k) at redshift z=0
# for k=8.06309e-06 to 23.1709 h/Mpc,
# number of wavenumbers equal to 861
#    1:k (h/Mpc)              2:P (Mpc/h)^3        
       8.063094627304e-06       1.012129544739e+02 
       1.799879852529e-05       2.195142873930e+02 
       2.795531670261e-05       3.355930636009e+02 
       3.794857284474e-05       4.505735611944e+02 
       4.799464795472e-05       5.650431113043e+02 
       5.810986579511e-05       6.794083607135e+02 
       6.831087998549e-05       7.939937716163e+02 
       7.861476346671e-05       9.090808512260e+02 
       8.903910104816e-05       1.024927273946e+03 
       9.960208576256e-05       1.141777606401e+03 
       1.103226197607e-04       1.259870005111e+03 
       1.212204204863e-04       1.379440800532e+03 
       1.323161328746e-04       1.500727896956e+03 
       1.436314483177e-04       1.623973477674e+03 
       1.551892311236e-04       1.749426283256e+03 
       1.670136531707e-04       1.877343646586e+03 
       1.791303374080e-04       2.007993363607e+03 
       1.915665107696e-04       2.141655482084e+03 
       2.043511669539e-04       2.278624045278e+03 
       2.175152393408e-04       2.419208811081e+03 
       2.310917840800e-04       2.563736965765e+03 
       2.451161730514e-04       2.712554833603e+03 
       2.596262959596e-04       2.866029581264e+03 
       2.746627702457e-04       3.024550889280e+03 
       2.902691567586e-04       3.188532584462e+03 
       3.064921781847e-04       3.358414172744e+03 
       3.233819360610e-04       3.534662245369e+03 
       3.409921207563e-04       3.717771668521e+03 
       3.593802070753e-04       3.908266479858e+03 
       3.786076260986e-04       4.106700393060e+03 
       3.987399015405e-04       4.313656757289e+03 
       4.198467363095e-04       4.529747830096e+03 
       4.420020322063e-04       4.755613178334e+03 
       4.652838229331e-04       4.991916987307e+03 
       4.897740980930e-04       5.239344068429e+03 
       5.155584939622e-04       5.498594295015e+03 
       5.427258260208e-04       5.770375296749e+03 
       5.713674391044e-04       6.055393134978e+03 
       6.015763542509e-04       6.354340893945e+03 
       6.334461975377e-04       6.667885096961e+03 
       6.670699059687e-04       6.996650145027e+03 
       7.025382190504e-04       7.341200991931e+03 
       7.399379818654e-04       7.702024669930e+03 
       7.793503053074e-04       8.079511394867e+03 
       8.208486500002e-04       8.473936051944e+03 
       8.644969197837e-04       8.885441426822e+03 
       9.103476654871e-04       9.314023678065e+03 
       9.584405068746e-04       9.759521238335e+03 
       1.008800877574e-03       1.022160804680e+04 
       1.061439183157e-03       1.069979085145e+04 
       1.072483128768e-03       1.079949629777e+04 
       1.116350436862e-03       1.119341214161e+04 
       1.173514403223e-03       1.170165830017e+04 
       1.232896241352e-03       1.222357369447e+04 
       1.294447601936e-03       1.275808083760e+04 
       1.358108100175e-03       1.330400547552e+04 
       1.423807064833e-03       1.386010372270e+04 
       1.491465453149e-03       1.442508964304e+04 
       1.560997822702e-03       1.499765857472e+04 
       1.632314262396e-03       1.557650613871e+04 
       1.705322202710e-03       1.616034406300e+04 
       1.779928046787e-03       1.674791305932e+04 
       1.856038585803e-03       1.733799536326e+04 
       1.933562181946e-03       1.792942986134e+04 
       2.012409718799e-03       1.852112139542e+04 
       2.092495331292e-03       1.911205040049e+04 
       2.173736935682e-03       1.970127362926e+04 
       2.256056584747e-03       2.028792680159e+04 
       2.339380675166e-03       2.087122117795e+04 
       2.423640033730e-03       2.145044474279e+04 
       2.508769907240e-03       2.202495678545e+04 
       2.594709878323e-03       2.259418477388e+04 
       2.681403726373e-03       2.315761361806e+04 
       2.768799249735e-03       2.371477856305e+04 
       2.856848062322e-03       2.426526585694e+04 
       2.945505375205e-03       2.480870881777e+04 
       3.034729771363e-03       2.534479718538e+04 
       3.124482979861e-03       2.587325505457e+04 
       3.214729654051e-03       2.639386671914e+04 
       3.305437157091e-03       2.690643709995e+04 
       3.396575357037e-03       2.741081186760e+04 
       3.488116432894e-03       2.790686198565e+04 
       3.580034692457e-03       2.839447463863e+04 
       3.672306402225e-03       2.887356538511e+04 
       3.764909629376e-03       2.934405680535e+04 
       3.857824095512e-03       2.980590319751e+04 
       3.951031041736e-03       3.025907161797e+04 
       4.044513104485e-03       3.070353679184e+04 
       4.138254201498e-03       3.113931917931e+04 
       4.232239427261e-03       3.156642549433e+04 
       4.326454957242e-03       3.198488924217e+04 
       4.420887960284e-03       3.239473784467e+04 
       4.515526518479e-03       3.279600672663e+04 
       4.610359553953e-03       3.318873722788e+04 
       4.705376761949e-03       3.357298213939e+04 
       4.800568549696e-03       3.394879711838e+04 
       4.895925980552e-03       3.431624626465e+04 
       4.991440722952e-03       3.467541175628e+04 
       5.087105003751e-03       3.502636173114e+04 
       5.182911565553e-03       3.536917794916e+04 
       5.278853627679e-03       3.570394744509e+04 
       5.374924850450e-03       3.603073323272e+04 
       5.471119302468e-03       3.634963330945e+04 
       5.567431430657e-03       3.666071762847e+04 
       5.663856032782e-03       3.696407506499e+04 
       5.760388232250e-03       3.725979079938e+04 
       5.857023454974e-03       3.754796353477e+04 
       5.953757408127e-03       3.782867530433e+04 
       6.050586060610e-03       3.810204424129e+04 
       6.147505625087e-03       3.836813935600e+04 
       6.244512541451e-03       3.862706240773e+04 
       6.341603461591e-03       3.887888488657e+04 
       6.438775235358e-03       3.912370760082e+04 
       6.536024897612e-03       3.936160175389e+04 
       6.633349656274e-03       3.959286206274e+04 
       6.730746881282e-03       3.981732453558e+04 
       6.828214094389e-03       4.003500006834e+04 
       6.925748959723e-03       4.024604216064e+04 
       7.023349275051e-03       4.045061010015e+04 
       7.121012963686e-03       4.064888382386e+04 
       7.218738066990e-03       4.084099396925e+04 
       7.316522737415e-03       4.102698776731e+04 
       7.414365232052e-03       4.120689153972e+04 
       7.512263906638e-03       4.138072274907e+04 
       7.610217209981e-03       4.154850779197e+04 
       7.708223678793e-03       4.171035717148e+04 
       7.806281932865e-03       4.186638468822e+04 
       7.904390670592e-03       4.201674255750e+04 
       8.002548664795e-03       4.216156262507e+04 
       8.100754758836e-03       4.230093393173e+04 
       8.199007862992e-03       4.243492780352e+04 
       8.297306951075e-03       4.256354542514e+04 
       8.395651057279e-03       4.268680294419e+04 
       8.494039273238e-03       4.280476723665e+04 
       8.592470745275e-03       4.291750281813e+04 
       8.690944671840e-03       4.302512796421e+04 
       8.789460301109e-03       4.312781420759e+04 
       8.888016928741e-03       4.322563670718e+04 
       8.986613895789e-03       4.331868890364e+04 
       9.085250586731e-03       4.340699127455e+04 
       9.183926427650e-03       4.349058557217e+04 
       9.282640884508e-03       4.356950128461e+04 
       9.381393461552e-03       4.364374928299e+04 
       9.480183699808e-03       4.371345736688e+04 
       9.579011175682e-03       4.377871853727e+04 
       9.677875499646e-03       4.383965411753e+04 
       9.776776315010e-03       4.389633492457e+04 
       9.875713296772e-03       4.394884070844e+04 
       9.974686150551e-03       4.399720677286e+04 
       1.007369461157e-02       4.404143646107e+04 
       1.017273844375e-02       4.408156847729e+04 
       1.027181743879e-02       4.411763931896e+04 
       1.037093141537e-02       4.414974410833e+04 
       1.047008021843e-02       4.417799394197e+04 
       1.056926371837e-02       4.420247452023e+04 
       1.066848181049e-02       4.422326584404e+04 
       1.072483128768e-02       4.423346293120e+04 
       1.076773441430e-02       4.424042843773e+04 
       1.086702147300e-02       4.425395821575e+04 
       1.096634295290e-02       4.426388973340e+04 
       1.106569884298e-02       4.427024614994e+04 
       1.116508915443e-02       4.427309365895e+04 
       1.126451392021e-02       4.427250851905e+04 
       1.136397319468e-02       4.426858148729e+04 
       1.146346705326e-02       4.426140041564e+04 
       1.156299559209e-02       4.425101942615e+04 
       1.166255892777e-02       4.423746573271e+04 
       1.176215719706e-02       4.422079492008e+04 
       1.186179055671e-02       4.420098205205e+04 
       1.196145918316e-02       4.417807863639e+04 
       1.206116327243e-02       4.415215225730e+04 
       1.216090303993e-02       4.412328075657e+04 
       1.226067872034e-02       4.409152338671e+04 
       1.236049056746e-02       4.405696413755e+04 
       1.246033885417e-02       4.401964073531e+04 
       1.256022387229e-02       4.397961371367e+04 
       1.266014593259e-02       4.393688251843e+04 
       1.276010536473e-02       4.389142343809e+04 
       1.286010251723e-02       4.384336280316e+04 
       1.296013775750e-02       4.379265873110e+04 
       1.306021147186e-02       4.373946069105e+04 
       1.316032406555e-02       4.368380262335e+04 
       1.326047596282e-02       4.362574503047e+04 
       1.336066760699e-02       4.356537488395e+04 
       1.346089946054e-02       4.350263795981e+04 
       1.356117200522e-02       4.343755651604e+04 
       1.366148574215e-02       4.337022678840e+04 
       1.376184119200e-02       4.330062059549e+04 
       1.386223889512e-02       4.322881904815e+04 
       1.396267941168e-02       4.315490261020e+04 
       1.406316332191e-02       4.307890736096e+04 
       1.416369122627e-02       4.300093874488e+04 
       1.426426374567e-02       4.292088151814e+04 
       1.436488152169e-02       4.283890876253e+04 
       1.446554521684e-02       4.275494075437e+04 
       1.456625551481e-02       4.266906987870e+04 
       1.466701312076e-02       4.258128116437e+04 
       1.476781876160e-02       4.249167040181e+04 
       1.486867318628e-02       4.240029376939e+04 
       1.496957716616e-02       4.230719172362e+04 
       1.507053149530e-02       4.221237320164e+04 
       1.517153699083e-02       4.211589391113e+04 
       1.527259449333e-02       4.201778279106e+04 
       1.537370486720e-02       4.191800267505e+04 
       1.547486900107e-02       4.181669608335e+04 
       1.557608780821e-02       4.171373011119e+04 
       1.567736222699e-02       4.160931695542e+04 
       1.577869322128e-02       4.150344919235e+04 
       1.588008178097e-02       4.139610220090e+04 
       1.598152892246e-02       4.128745442876e+04 
       1.608303568910e-02       4.117738741198e+04 
       1.618460315180e-02       4.106593115931e+04 
       1.628623240951e-02       4.095313349858e+04 
       1.638792458979e-02       4.083910341850e+04 
       1.648968084943e-02       4.072377599780e+04 
       1.659150237500e-02       4.060727645886e+04 
       1.669339038352e-02       4.048951301248e+04 
       1.679534612307e-02       4.037067439963e+04 
       1.689737087345e-02       4.025066795002e+04 
       1.699946594690e-02       4.012958333419e+04 
       1.710163268879e-02       4.000742212512e+04 
       1.720387247834e-02       3.988421502304e+04 
       1.730618672941e-02       3.975988772134e+04 
       1.740857689126e-02       3.963462729490e+04 
       1.751104444935e-02       3.950843376099e+04 
       1.761359092622e-02       3.938132147989e+04 
       1.771621788228e-02       3.925346846003e+04 
       1.781892691677e-02       3.912444122679e+04 
       1.792171966864e-02       3.899463815568e+04 
       1.802459781749e-02       3.886400976467e+04 
       1.812756308460e-02       3.873258873621e+04 
       1.823061723387e-02       3.860034252427e+04 
       1.833376207294e-02       3.846741250270e+04 
       1.843699945421e-02       3.833378803125e+04 
       1.854033127596e-02       3.819934846882e+04 
       1.864375948354e-02       3.806438651244e+04 
       1.874728607052e-02       3.792863608822e+04 
       1.885091307993e-02       3.779224627828e+04 
       1.895464260553e-02       3.765527227068e+04 
       1.905847679309e-02       3.751771441370e+04 
       1.916241784181e-02       3.737963155353e+04 
       1.926646800562e-02       3.724092359498e+04 
       1.937062959473e-02       3.710166360770e+04 
       1.947490497703e-02       3.696206892080e+04 
       1.957929657969e-02       3.682187615268e+04 
       1.968380689075e-02       3.668125576226e+04 
       1.978843846073e-02       3.654012299509e+04 
       1.989319390439e-02       3.639863005075e+04 
       1.999807590245e-02       3.625669739240e+04 
       2.010308720343e-02       3.611444086660e+04 
       2.020823062557e-02       3.597182777776e+04 
       2.031350905871e-02       3.582877317183e+04 
       2.041892546640e-02       3.568555435460e+04 
       2.052448288792e-02       3.554193454875e+04 
       2.063018444051e-02       3.539802356418e+04 
       2.073603332157e-02       3.525387369674e+04 
       2.084203281100e-02       3.510943084921e+04 
       2.094818627365e-02       3.496468342569e+04 
       2.105449716174e-02       3.481984002948e+04 
       2.116096901752e-02       3.467477163881e+04 
       2.126760547593e-02       3.452956849590e+04 
       2.137441026739e-02       3.438410276298e+04 
       2.148138722068e-02       3.423853656315e+04 
       2.158854026595e-02       3.409279441269e+04 
       2.169587343784e-02       3.394690833559e+04 
       2.180339087868e-02       3.380093963453e+04 
       2.191109684188e-02       3.365487649474e+04 
       2.201899569540e-02       3.350870873706e+04 
       2.212709192539e-02       3.336262921188e+04 
       2.223539013991e-02       3.321633405097e+04 
       2.234389507290e-02       3.307001548763e+04 
       2.245261158821e-02       3.292373752860e+04 
       2.256154468385e-02       3.277745997646e+04 
       2.267069949639e-02       3.263108385556e+04 
       2.278008130557e-02       3.248476234106e+04 
       2.288969553903e-02       3.233849923141e+04 
       2.299954777733e-02       3.219224566210e+04 
       2.310964375908e-02       3.204597085140e+04 
       2.321998938642e-02       3.189993850588e+04 
       2.333059073056e-02       3.175376800774e+04 
       2.344145403772e-02       3.160781204675e+04 
       2.355258573524e-02       3.146191950583e+04 
       2.366399243796e-02       3.131612386781e+04 
       2.377568095491e-02       3.117042990931e+04 
       2.388765829629e-02       3.102482548963e+04 
       2.399993168077e-02       3.087950254617e+04 
       2.411250854307e-02       3.073418185266e+04 
       2.422539654196e-02       3.058902080045e+04 
       2.433860356859e-02       3.044402038310e+04 
       2.445213775520e-02       3.029919237713e+04 
       2.456600748427e-02       3.015453686562e+04 
       2.468022139806e-02       3.001004846540e+04 
       2.479478840868e-02       2.986574131221e+04 
       2.490971770854e-02       2.972173142008e+04 
       2.502501878140e-02       2.957781031622e+04 
       2.514070141396e-02       2.943409493214e+04 
       2.525677570795e-02       2.929066665235e+04 
       2.537325209291e-02       2.914737090189e+04 
       2.549014133959e-02       2.900449068400e+04 
       2.560745457402e-02       2.886169024767e+04 
       2.572520329234e-02       2.871906842552e+04 
       2.584339937636e-02       2.857675070839e+04 
       2.596205511003e-02       2.843475586870e+04 
       2.608118319667e-02       2.829295568194e+04 
       2.620079677725e-02       2.815138812954e+04 
       2.632090944957e-02       2.801012061642e+04 
       2.644153528857e-02       2.786919184371e+04 
       2.656268886774e-02       2.772835091319e+04 
       2.668438528172e-02       2.758791267863e+04 
       2.680664017026e-02       2.744772184225e+04 
       2.692946974346e-02       2.730773895045e+04 
       2.705289080857e-02       2.716814771920e+04 
       2.717692079836e-02       2.702874799527e+04 
       2.730157780110e-02       2.688957696956e+04 
       2.742688059249e-02       2.675076942656e+04 
       2.755284866939e-02       2.661227785930e+04 
       2.767950228580e-02       2.647405906667e+04 
       2.780686249094e-02       2.633605936849e+04 
       2.793495116984e-02       2.619836494776e+04 
       2.806379108652e-02       2.606105559428e+04 
       2.819340592993e-02       2.592390780056e+04 
       2.832382036298e-02       2.578711580948e+04 
       2.845506007482e-02       2.565061741226e+04 
       2.858715183659e-02       2.551434981196e+04 
       2.872012356109e-02       2.537837791856e+04 
       2.885400436650e-02       2.524273693536e+04 
       2.898882464463e-02       2.510747289497e+04 
       2.912461613400e-02       2.497216551222e+04 
       2.926141199827e-02       2.483735728258e+04 
       2.939924691029e-02       2.470273423237e+04 
       2.953815714251e-02       2.456840439304e+04 
       2.967818066417e-02       2.443429366479e+04 
       2.981935724591e-02       2.430050591182e+04 
       2.996172857251e-02       2.416687287319e+04 
       3.010533836449e-02       2.403360902627e+04 
       3.025023250948e-02       2.390051227504e+04 
       3.039645920424e-02       2.376761508510e+04 
       3.054406910836e-02       2.363493453874e+04 
       3.069311551090e-02       2.350258874005e+04 
       3.084365451118e-02       2.337033332750e+04 
       3.099574521522e-02       2.323839973083e+04 
       3.114944994949e-02       2.310654699392e+04 
       3.130483449372e-02       2.297488665342e+04 
       3.146196833501e-02       2.284338704362e+04 
       3.162092494534e-02       2.271212531623e+04 
       3.178178208528e-02       2.258093632702e+04 
       3.194462213687e-02       2.244993830314e+04 
       3.210953246892e-02       2.231902733556e+04 
       3.227660583871e-02       2.218821853365e+04 
       3.244594083441e-02       2.205750658313e+04 
       3.261764236309e-02       2.192692452660e+04 
       3.279182219027e-02       2.179628559486e+04 
       3.296859953727e-02       2.166583058693e+04 
       3.314810174411e-02       2.153536064256e+04 
       3.333046500643e-02       2.140487575238e+04 
       3.351583519656e-02       2.127432576279e+04 
       3.370436878034e-02       2.114377910117e+04 
       3.389623384307e-02       2.101328234748e+04 
       3.409161124033e-02       2.088257232368e+04 
       3.429069589206e-02       2.075179968039e+04 
       3.449369824139e-02       2.062076163319e+04 
       3.470084590345e-02       2.048966112777e+04 
       3.491238553415e-02       2.035834207643e+04 
       3.512858495416e-02       2.022676364139e+04 
       3.534973557020e-02       2.009485022954e+04 
       3.557615514375e-02       1.996265114205e+04 
       3.580819096709e-02       1.983003181709e+04 
       3.604622351893e-02       1.969709213518e+04 
       3.629067068657e-02       1.956354904085e+04 
       3.654199266004e-02       1.942952784691e+04 
       3.680069762652e-02       1.929489685737e+04 
       3.706734842189e-02       1.915956111516e+04 
       3.734257033169e-02       1.902352487940e+04 
       3.762706027869e-02       1.888656824009e+04 
       3.792159769073e-02       1.874869369161e+04 
       3.822705741365e-02       1.860972783606e+04 
       3.854442512508e-02       1.846964419923e+04 
       3.887481582005e-02       1.832826747803e+04 
       3.921949608648e-02       1.818523359572e+04 
       3.957991107594e-02       1.804064260250e+04 
       3.995771731366e-02       1.789411935911e+04 
