# Matter power spectrum P(k) at redshift z=0
# for k=9.0192e-06 to 20.5861 h/Mpc,
# number of wavenumbers equal to 855
#    1:k (h/Mpc)              2:P (Mpc/h)^3        
       9.019201454174e-06       7.371580015432e+01 
       2.013437232318e-05       1.598877737177e+02 
       3.127867019624e-05       2.444853386969e+02 
       4.247440903451e-05       3.283599057417e+02 
       5.374417827534e-05       4.119719932042e+02 
       6.511099296095e-05       4.956512344117e+02 
       7.659844748270e-05       5.796685745845e+02 
       8.823087449441e-05       6.642652778641e+02 
       1.000335105604e-04       7.496672923804e+02 
       1.120326701213e-04       8.360935081293e+02 
       1.242559293744e-04       9.237611036647e+02 
       1.367323216761e-04       1.012889379597e+03 
       1.494925460608e-04       1.103702761391e+03 
       1.625691904350e-04       1.196433327922e+03 
       1.759969709228e-04       1.291323074610e+03 
       1.898129886899e-04       1.388626029526e+03 
       2.040570053356e-04       1.488610299894e+03 
       2.187717375774e-04       1.591560088392e+03 
       2.340031714211e-04       1.697777708441e+03 
       2.498008952548e-04       1.807585608742e+03 
       2.662184502690e-04       1.921328388999e+03 
       2.833136952002e-04       2.039374803077e+03 
       3.011491805457e-04       2.162119699378e+03 
       3.197925249974e-04       2.289985845782e+03 
       3.393167837950e-04       2.423425561190e+03 
       3.598007949172e-04       2.562922047300e+03 
       3.813294844476e-04       2.708990283303e+03 
       4.039941070762e-04       2.862177310838e+03 
       4.278923916126e-04       3.023061696468e+03 
       4.531285548632e-04       3.192251922789e+03 
       4.798131407256e-04       3.370383418913e+03 
       5.080626356595e-04       3.558113900819e+03 
       5.379988079316e-04       3.756116711358e+03 
       5.697477177126e-04       3.965071800205e+03 
       6.034383500518e-04       4.185654146376e+03 
       6.392008349528e-04       4.418519406801e+03 
       6.771642399587e-04       4.664286892029e+03 
       7.174539518240e-04       4.923520171583e+03 
       7.601887045194e-04       5.196705900758e+03 
       8.054773583407e-04       5.484231998776e+03 
       8.534155840436e-04       5.786366399367e+03 
       9.040826490048e-04       6.103238225310e+03 
       9.575385302735e-04       6.434822598252e+03 
       1.013821583378e-03       6.780930958712e+03 
       1.072946970199e-03       7.141207342209e+03 
       1.134905993731e-03       7.515130958932e+03 
       1.199666408215e-03       7.902025107400e+03 
       1.237685953032e-03       8.127297954042e+03 
       1.267173681764e-03       8.301071568976e+03 
       1.337353100265e-03       8.711330109686e+03 
       1.410112530429e-03       9.131762935835e+03 
       1.485345616560e-03       9.561262294683e+03 
       1.562935173802e-03       9.998680009644e+03 
       1.642756557639e-03       1.044285552228e+04 
       1.724680827698e-03       1.089263935409e+04 
       1.808577573914e-03       1.134691079768e+04 
       1.894317325288e-03       1.180459065067e+04 
       1.981773508839e-03       1.226465027925e+04 
       2.070823964317e-03       1.272612000696e+04 
       2.161352047312e-03       1.318809586403e+04 
       2.253247369975e-03       1.364974576439e+04 
       2.346406236227e-03       1.411031123937e+04 
       2.440731829417e-03       1.456910287765e+04 
       2.536134206954e-03       1.502549986918e+04 
       2.632530150392e-03       1.547894389879e+04 
       2.729842912233e-03       1.592893838476e+04 
       2.828001893341e-03       1.637504221630e+04 
       2.926942277899e-03       1.681686932095e+04 
       3.026604646696e-03       1.725407455563e+04 
       3.126934584318e-03       1.768635731806e+04 
       3.227882291507e-03       1.811344851487e+04 
       3.329402210537e-03       1.853511911831e+04 
       3.431452668786e-03       1.895117394134e+04 
       3.533995543625e-03       1.936144716272e+04 
       3.636995950267e-03       1.976580491376e+04 
       3.740421953082e-03       2.016413031736e+04 
       3.844244300126e-03       2.055633173228e+04 
       3.948436180119e-03       2.094233062306e+04 
       4.052973000729e-03       2.132207068050e+04 
       4.157832186856e-03       2.169549977203e+04 
       4.262992997494e-03       2.206258677325e+04 
       4.368436359704e-03       2.242331057810e+04 
       4.474144718296e-03       2.277765822053e+04 
       4.580101899811e-03       2.312562809057e+04 
       4.686292989519e-03       2.346723171375e+04 
       4.792704220213e-03       2.380249173961e+04 
       4.899322871658e-03       2.413142202463e+04 
       5.006137179679e-03       2.445405283479e+04 
       5.113136253919e-03       2.477041226540e+04 
       5.220310003429e-03       2.508054046347e+04 
       5.327649069297e-03       2.538446962310e+04 
       5.435144763619e-03       2.568224816784e+04 
       5.542789014175e-03       2.597393061444e+04 
       5.650574314243e-03       2.625955472102e+04 
       5.758493677037e-03       2.653919067363e+04 
       5.866540594312e-03       2.681287675743e+04 
       5.974708998718e-03       2.708067762159e+04 
       6.082993229540e-03       2.734264528264e+04 
       6.191388001486e-03       2.759883907201e+04 
       6.299888376236e-03       2.784930447579e+04 
       6.408489736469e-03       2.809411456871e+04 
       6.517187762150e-03       2.833333923003e+04 
       6.625978408838e-03       2.856702528740e+04 
       6.734857887851e-03       2.879523481414e+04 
       6.843822648090e-03       2.901803466325e+04 
       6.952869359376e-03       2.923548861576e+04 
       7.061994897172e-03       2.944765485110e+04 
       7.171196328541e-03       2.965459540180e+04 
       7.280470899244e-03       2.985637478259e+04 
       7.389816021878e-03       3.005307863517e+04 
       7.499229264944e-03       3.024474817706e+04 
       7.608708342784e-03       3.043139316752e+04 
       7.718251106291e-03       3.061307595791e+04 
       7.827855534349e-03       3.078988586396e+04 
       7.937519725913e-03       3.096191971447e+04 
       8.047241892697e-03       3.112926107028e+04 
       8.157020352409e-03       3.129196265807e+04 
       8.266853522487e-03       3.145005112788e+04 
       8.376739914299e-03       3.160355878210e+04 
       8.486678127766e-03       3.175252410247e+04 
       8.596666846377e-03       3.189701396044e+04 
       8.706704832558e-03       3.203709044519e+04 
       8.816790923377e-03       3.217283145841e+04 
       8.926924026550e-03       3.230433006685e+04 
       9.037103116728e-03       3.243163263848e+04 
       9.147327232045e-03       3.255479549045e+04 
       9.257595470906e-03       3.267384863583e+04 
       9.367906988995e-03       3.278881880450e+04 
       9.478260996488e-03       3.289974747818e+04 
       9.588656755457e-03       3.300668272932e+04 
       9.699093577455e-03       3.310971736780e+04 
       9.809570821253e-03       3.320890029831e+04 
       9.920087890742e-03       3.330430587086e+04 
       1.003064423297e-02       3.339599183279e+04 
       1.014123933630e-02       3.348399081734e+04 
       1.025187272874e-02       3.356833157990e+04 
       1.036254397627e-02       3.364905082043e+04 
       1.047325268145e-02       3.372618254191e+04 
       1.058399848198e-02       3.379978900819e+04 
       1.069478104937e-02       3.386993377197e+04 
       1.080560008783e-02       3.393667357686e+04 
       1.091645533304e-02       3.400007295392e+04 
       1.102734655117e-02       3.406017400998e+04 
       1.113827353786e-02       3.411700726972e+04 
       1.124923611732e-02       3.417060665047e+04 
       1.136023414150e-02       3.422098610958e+04 
       1.147126748927e-02       3.426818556928e+04 
       1.158233606570e-02       3.431229270064e+04 
       1.169343980138e-02       3.435332682593e+04 
       1.180457865178e-02       3.439137257016e+04 
       1.191575259669e-02       3.442645384091e+04 
       1.202696163964e-02       3.445862194034e+04 
       1.213820580743e-02       3.448790622397e+04 
       1.224948514968e-02       3.451432497106e+04 
       1.236079973837e-02       3.453792456331e+04 
       1.237685953032e-02       3.454108316812e+04 
       1.247214966748e-02       3.455871773082e+04 
       1.258353505266e-02       3.457678610634e+04 
       1.269495603087e-02       3.459215545100e+04 
       1.280641276012e-02       3.460489770067e+04 
       1.291790541920e-02       3.461503677048e+04 
       1.302943420746e-02       3.462262019309e+04 
       1.314099934461e-02       3.462765859605e+04 
       1.325260107051e-02       3.463018614271e+04 
       1.336423964509e-02       3.463022690969e+04 
       1.347591534813e-02       3.462782392686e+04 
       1.358762847924e-02       3.462303331009e+04 
       1.369937935772e-02       3.461587862960e+04 
       1.381116832253e-02       3.460643120973e+04 
       1.392299573225e-02       3.459470823942e+04 
       1.403486196504e-02       3.458074636013e+04 
       1.414676741865e-02       3.456455383403e+04 
       1.425871251047e-02       3.454619005636e+04 
       1.437069767751e-02       3.452564599696e+04 
       1.448272337650e-02       3.450296986100e+04 
       1.459479008397e-02       3.447822469349e+04 
       1.470689829629e-02       3.445142089691e+04 
       1.481904852984e-02       3.442264514550e+04 
       1.493124132110e-02       3.439187352336e+04 
       1.504347722680e-02       3.435917751291e+04 
       1.515575682410e-02       3.432452874070e+04 
       1.526808071071e-02       3.428798710165e+04 
       1.538044950514e-02       3.424957302094e+04 
       1.549286384690e-02       3.420933752218e+04 
       1.560532439667e-02       3.416728951416e+04 
       1.571783183662e-02       3.412350362795e+04 
       1.583038687058e-02       3.407799821632e+04 
       1.594299022439e-02       3.403078611081e+04 
       1.605564264613e-02       3.398190307395e+04 
       1.616834490645e-02       3.393135196558e+04 
       1.628109779887e-02       3.387917276766e+04 
       1.639390214014e-02       3.382539584269e+04 
       1.650675877056e-02       3.377005377332e+04 
       1.661966855437e-02       3.371317156238e+04 
       1.673263238013e-02       3.365482383164e+04 
       1.684565116109e-02       3.359497654127e+04 
       1.695872583566e-02       3.353373494554e+04 
       1.707185736779e-02       3.347100034099e+04 
       1.718504674747e-02       3.340687463555e+04 
       1.729829499114e-02       3.334138991223e+04 
       1.741160314223e-02       3.327453296912e+04 
       1.752497227163e-02       3.320635686280e+04 
       1.763840347825e-02       3.313693169705e+04 
       1.775189788949e-02       3.306620986278e+04 
       1.786545666187e-02       3.299427110465e+04 
       1.797908098160e-02       3.292111410064e+04 
       1.809277206515e-02       3.284677223768e+04 
       1.820653115987e-02       3.277124881904e+04 
       1.832035954466e-02       3.269453314128e+04 
       1.843425853064e-02       3.261674747556e+04 
       1.854822946178e-02       3.253784058759e+04 
       1.866227371567e-02       3.245788783369e+04 
       1.877639270420e-02       3.237685753584e+04 
       1.889058787436e-02       3.229488798949e+04 
       1.900486070897e-02       3.221182105017e+04 
       1.911921272753e-02       3.212779323153e+04 
       1.923364548703e-02       3.204284419497e+04 
       1.934816058281e-02       3.195688708458e+04 
       1.946275964942e-02       3.187009804776e+04 
       1.957744436158e-02       3.178236908170e+04 
       1.969221643508e-02       3.169375652476e+04 
       1.980707762778e-02       3.160430453626e+04 
       1.992202974060e-02       3.151407900931e+04 
       2.003707461854e-02       3.142300313061e+04 
       2.015221415178e-02       3.133117111047e+04 
       2.026745027677e-02       3.123851217269e+04 
       2.038278497735e-02       3.114514156424e+04 
       2.049822028594e-02       3.105104790983e+04 
       2.061375828477e-02       3.095621820374e+04 
       2.072940110709e-02       3.086072084744e+04 
       2.084515093849e-02       3.076458973757e+04 
       2.096101001822e-02       3.066775566542e+04 
       2.107698064060e-02       3.057031144041e+04 
       2.119306515638e-02       3.047223329241e+04 
       2.130926597426e-02       3.037351328837e+04 
       2.142558556241e-02       3.027431927764e+04 
       2.154202644997e-02       3.017454295988e+04 
       2.165859122876e-02       3.007419051891e+04 
       2.177528255490e-02       2.997334604092e+04 
       2.189210315054e-02       2.987198297408e+04 
       2.200905580565e-02       2.977016499802e+04 
       2.212614337989e-02       2.966776713376e+04 
       2.224336880449e-02       2.956497937131e+04 
       2.236073508425e-02       2.946172167729e+04 
       2.247824529957e-02       2.935806996774e+04 
       2.259590260856e-02       2.925400519605e+04 
       2.271371024925e-02       2.914959807988e+04 
       2.283167154183e-02       2.904473913603e+04 
       2.294978989100e-02       2.893951818823e+04 
       2.306806878841e-02       2.883396272202e+04 
       2.318651181515e-02       2.872814339585e+04 
       2.330512264439e-02       2.862189917546e+04 
       2.342390504404e-02       2.851535701854e+04 
       2.354286287957e-02       2.840856817182e+04 
       2.366200011688e-02       2.830141999121e+04 
       2.378132082533e-02       2.819416146176e+04 
       2.390082918088e-02       2.808652894590e+04 
       2.402052946923e-02       2.797866700108e+04 
       2.414042608930e-02       2.787064081640e+04 
       2.426052355659e-02       2.776233999324e+04 
       2.438082650687e-02       2.765394895727e+04 
       2.450133969992e-02       2.754522901562e+04 
       2.462206802339e-02       2.743638310432e+04 
       2.474301649691e-02       2.732741412670e+04 
       2.486419027623e-02       2.721826136556e+04 
       2.498559465764e-02       2.710899634645e+04 
       2.510723508253e-02       2.699952450726e+04 
       2.522911714207e-02       2.688999946671e+04 
       2.535124658217e-02       2.678033901698e+04 
       2.547362930863e-02       2.667056546291e+04 
       2.559627139240e-02       2.656077897373e+04 
       2.571917907523e-02       2.645089037208e+04 
       2.584235877539e-02       2.634085618800e+04 
       2.596581709374e-02       2.623080381267e+04 
       2.608956082001e-02       2.612068732627e+04 
       2.621359693938e-02       2.601058745022e+04 
       2.633793263930e-02       2.590042158801e+04 
       2.646257531666e-02       2.579025408950e+04 
       2.658753258525e-02       2.568003406427e+04 
       2.671281228353e-02       2.556988225776e+04 
       2.683842248280e-02       2.545962246076e+04 
       2.696437149571e-02       2.534955407066e+04 
       2.709066788513e-02       2.523929344371e+04 
       2.721732047350e-02       2.512919761454e+04 
       2.734433835256e-02       2.501904540803e+04 
       2.747173089352e-02       2.490899307497e+04 
       2.759950775781e-02       2.479897087916e+04 
       2.772767890822e-02       2.468900123362e+04 
       2.785625462066e-02       2.457906083134e+04 
       2.798524549648e-02       2.446931369521e+04 
       2.811466247535e-02       2.435950304719e+04 
       2.824451684888e-02       2.424992621012e+04 
       2.837482027479e-02       2.414024469292e+04 
       2.850558479194e-02       2.403073437066e+04 
       2.863682283602e-02       2.392134887544e+04 
       2.876854725609e-02       2.381199622390e+04 
       2.890077133202e-02       2.370280225409e+04 
       2.903350879283e-02       2.359370123988e+04 
       2.916677383594e-02       2.348472961986e+04 
       2.930058114758e-02       2.337583700734e+04 
       2.943494592425e-02       2.326704811992e+04 
       2.956988389536e-02       2.315850557991e+04 
       2.970541134711e-02       2.304993009038e+04 
       2.984154514783e-02       2.294156750002e+04 
       2.997830277459e-02       2.283338112704e+04 
       3.011570234153e-02       2.272529339839e+04 
       3.025376262967e-02       2.261727753799e+04 
       3.039250311863e-02       2.250949796941e+04 
       3.053194402011e-02       2.240183034030e+04 
       3.067210631353e-02       2.229433577118e+04 
       3.081301178370e-02       2.218693982184e+04 
       3.095468306095e-02       2.207968935872e+04 
       3.109714366369e-02       2.197261527931e+04 
       3.124041804370e-02       2.186568688960e+04 
       3.138453163433e-02       2.175891792319e+04 
       3.152951090180e-02       2.165231349260e+04 
       3.167538339992e-02       2.154580861394e+04 
       3.182217782843e-02       2.143950572481e+04 
       3.196992409528e-02       2.133332613674e+04 
       3.211865338317e-02       2.122726942622e+04 
       3.226839822072e-02       2.112136073474e+04 
       3.241919255863e-02       2.101568419595e+04 
       3.257107185125e-02       2.091008010987e+04 
       3.272407314408e-02       2.080463295172e+04 
       3.287823516760e-02       2.069925446232e+04 
       3.303359843821e-02       2.059416055654e+04 
       3.319020536659e-02       2.048908517610e+04 
       3.334810037451e-02       2.038413291639e+04 
       3.350733002060e-02       2.027940427467e+04 
       3.366794313606e-02       2.017479028757e+04 
       3.382999097124e-02       2.007027934317e+04 
       3.399352735407e-02       1.996575558232e+04 
       3.415860886157e-02       1.986146648512e+04 
       3.432529500575e-02       1.975729179801e+04 
       3.449364843534e-02       1.965312976851e+04 
       3.466373515488e-02       1.954909615837e+04 
       3.483562476319e-02       1.944523432234e+04 
       3.500939071309e-02       1.934137528245e+04 
       3.518511059478e-02       1.923753172505e+04 
       3.536286644542e-02       1.913387010192e+04 
       3.554274508785e-02       1.903007665403e+04 
       3.572483850181e-02       1.892648227427e+04 
       3.590924423139e-02       1.882278814556e+04 
       3.609606583291e-02       1.871933281994e+04 
       3.628541336829e-02       1.861570196677e+04 
       3.647740394922e-02       1.851211510235e+04 
       3.667216233868e-02       1.840852047358e+04 
       3.686982161695e-02       1.830483931044e+04 
       3.707052392060e-02       1.820115058938e+04 
       3.727442126399e-02       1.809741085412e+04 
       3.748167645451e-02       1.799354501064e+04 
       3.769246411437e-02       1.788961105593e+04 
       3.790697182412e-02       1.778554287763e+04 
       3.812540140511e-02       1.768138292753e+04 
       3.834797036152e-02       1.757694496005e+04 
       3.857491350587e-02       1.747237052516e+04 
       3.880648479604e-02       1.736764758938e+04 
       3.904295941716e-02       1.726254796747e+04 
       3.928463614761e-02       1.715729765189e+04 
       3.953184005601e-02       1.705167512608e+04 
       3.978492558473e-02       1.694571720811e+04 
       4.004428008681e-02       1.683937211352e+04 
       4.031032789653e-02       1.673265268534e+04 
       4.058353503013e-02       1.662542218738e+04 
       4.086441463424e-02       1.651768208253e+04 
       4.115353332438e-02       1.640936411643e+04 
       4.145151858783e-02       1.630040480213e+04 
       4.175906746475e-02       1.619075256319e+04 
       4.207695677096e-02       1.608031579930e+04 
       4.240605518850e-02       1.596901422839e+04 
       4.274733762948e-02       1.585678405002e+04 
       4.310190237925e-02       1.574345618430e+04 
       4.347099165291e-02       1.562898273122e+04 
       4.385601636264e-02       1.551318803728e+04 
       4.425858610119e-02       1.539591972139e+04 
       4.468054561138e-02       1.527699911277e+04 
       4.512401934694e-02       1.515626013211e+04 
       4.559146614893e-02       1.503327914734e+04 
       4.608574657885e-02       1.490792508434e+04 
       4.661020606377e-02       1.477977485336e+04 
       4.716877769811e-02       1.464836204101e+04 
