# Matter power spectrum P(k) at redshift z=0
# for k=8.06309e-06 to 23.1709 h/Mpc,
# number of wavenumbers equal to 861
#    1:k (h/Mpc)              2:P (Mpc/h)^3        
       8.063094627304e-06       1.010797682841e+02 
       1.799879852529e-05       2.192259773086e+02 
       2.795531670261e-05       3.351537679600e+02 
       3.794857284474e-05       4.499865888104e+02 
       4.799464795472e-05       5.643116554012e+02 
       5.810986579511e-05       6.785357517884e+02 
       6.831087998549e-05       7.929836083773e+02 
       7.861476346671e-05       9.079370870314e+02 
       8.903910104816e-05       1.023654285016e+03 
       9.960208576256e-05       1.140380252748e+03 
       1.103226197607e-04       1.258353689445e+03 
       1.212204204863e-04       1.377811527860e+03 
       1.323161328746e-04       1.498992336305e+03 
       1.436314483177e-04       1.622139026619e+03 
       1.551892311236e-04       1.747501135452e+03 
       1.670136531707e-04       1.875336861964e+03 
       1.791303374080e-04       2.005914940561e+03 
       1.915665107696e-04       2.139516430399e+03 
       2.043511669539e-04       2.276436458013e+03 
       2.175152393408e-04       2.416985932936e+03 
       2.310917840800e-04       2.561493254634e+03 
       2.451161730514e-04       2.710306011037e+03 
       2.596262959596e-04       2.863792666483e+03 
       2.746627702457e-04       3.022344210091e+03 
       2.902691567586e-04       3.186375757126e+03 
       3.064921781847e-04       3.356328041487e+03 
       3.233819360610e-04       3.532668771053e+03 
       3.409921207563e-04       3.715893755194e+03 
       3.593802070753e-04       3.906527727839e+03 
       3.786076260986e-04       4.105124768340e+03 
       3.987399015405e-04       4.312268169911e+03 
       4.198467363095e-04       4.528569619570e+03 
       4.420020322063e-04       4.754667512631e+03 
       4.652838229331e-04       4.991224194178e+03 
       4.897740980930e-04       5.238921933691e+03 
       5.155584939622e-04       5.498457381241e+03 
       5.427258260208e-04       5.770534355107e+03 
       5.713674391044e-04       6.055854698587e+03 
       6.015763542509e-04       6.355107146335e+03 
       6.334461975377e-04       6.668954095936e+03 
       6.670699059687e-04       6.998016442059e+03 
       7.025382190504e-04       7.342856616180e+03 
       7.399379818654e-04       7.703960349491e+03 
       7.793503053074e-04       8.081717787182e+03 
       8.208486500002e-04       8.476404690387e+03 
       8.644969197837e-04       8.888165113482e+03 
       9.103476654871e-04       9.316996207055e+03 
       9.584405068746e-04       9.762736619173e+03 
       1.008800877574e-03       1.022505973206e+04 
       1.061439183157e-03       1.070347168438e+04 
       1.072483128768e-03       1.080322312530e+04 
       1.116350436862e-03       1.119731561958e+04 
       1.173514403223e-03       1.170578117863e+04 
       1.232896241352e-03       1.222791906235e+04 
       1.294447601936e-03       1.276266001981e+04 
       1.358108100175e-03       1.330883706306e+04 
       1.423807064833e-03       1.386520907129e+04 
       1.491465453149e-03       1.443048604675e+04 
       1.560997822702e-03       1.500335300141e+04 
       1.632314262396e-03       1.558249268812e+04 
       1.705322202710e-03       1.616660664456e+04 
       1.779928046787e-03       1.675443199168e+04 
       1.856038585803e-03       1.734475449084e+04 
       1.933562181946e-03       1.793642086496e+04 
       2.012409718799e-03       1.852834413843e+04 
       2.092495331292e-03       1.911951063148e+04 
       2.173736935682e-03       1.970898018681e+04 
       2.256056584747e-03       2.029588929154e+04 
       2.339380675166e-03       2.087944751438e+04 
       2.423640033730e-03       2.145893790481e+04 
       2.508769907240e-03       2.203371180600e+04 
       2.594709878323e-03       2.260318842335e+04 
       2.681403726373e-03       2.316684838529e+04 
       2.768799249735e-03       2.372422953520e+04 
       2.856848062322e-03       2.427492651096e+04 
       2.945505375205e-03       2.481858210500e+04 
       3.034729771363e-03       2.535489154076e+04 
       3.124482979861e-03       2.588357828675e+04 
       3.214729654051e-03       2.640442147275e+04 
       3.305437157091e-03       2.691721951839e+04 
       3.396575357037e-03       2.742181274866e+04 
       3.488116432894e-03       2.791806904042e+04 
       3.580034692457e-03       2.840587532403e+04 
       3.672306402225e-03       2.888515024681e+04 
       3.764909629376e-03       2.935582237617e+04 
       3.857824095512e-03       2.981785254455e+04 
       3.951031041736e-03       3.027121132293e+04 
       4.044513104485e-03       3.071587161827e+04 
       4.138254201498e-03       3.115184769390e+04 
       4.232239427261e-03       3.157913935195e+04 
       4.326454957242e-03       3.199777625391e+04 
       4.420887960284e-03       3.240778644934e+04 
       4.515526518479e-03       3.280920928365e+04 
       4.610359553953e-03       3.320209106505e+04 
       4.705376761949e-03       3.358648875035e+04 
       4.800568549696e-03       3.396246015409e+04 
       4.895925980552e-03       3.433006869915e+04 
       4.991440722952e-03       3.468939291356e+04 
       5.087105003751e-03       3.504049560487e+04 
       5.182911565553e-03       3.538345422926e+04 
       5.278853627679e-03       3.571835509702e+04 
       5.374924850450e-03       3.604526457407e+04 
       5.471119302468e-03       3.636428609547e+04 
       5.567431430657e-03       3.667549404654e+04 
       5.663856032782e-03       3.697897870067e+04 
       5.760388232250e-03       3.727482348729e+04 
       5.857023454974e-03       3.756312347016e+04 
       5.953757408127e-03       3.784395673069e+04 
       6.050586060610e-03       3.811743859894e+04 
       6.147505625087e-03       3.838363758853e+04 
       6.244512541451e-03       3.864265783708e+04 
       6.341603461591e-03       3.889457525469e+04 
       6.438775235358e-03       3.913949493689e+04 
       6.536024897612e-03       3.937750755692e+04 
       6.633349656274e-03       3.960868891129e+04 
       6.730746881282e-03       3.983316460110e+04 
       6.828214094389e-03       4.005098469343e+04 
       6.925748959723e-03       4.026226289046e+04 
       7.023349275051e-03       4.046707155143e+04 
       7.121012963686e-03       4.066550741547e+04 
       7.218738066990e-03       4.085766382131e+04 
       7.316522737415e-03       4.104361131924e+04 
       7.414365232052e-03       4.122344346435e+04 
       7.512263906638e-03       4.139725199966e+04 
       7.610217209981e-03       4.156510766324e+04 
       7.708223678793e-03       4.172711614207e+04 
       7.806281932865e-03       4.188334289906e+04 
       7.904390670592e-03       4.203387371225e+04 
       8.002548664795e-03       4.217878791316e+04 
       8.100754758836e-03       4.231816010455e+04 
       8.199007862992e-03       4.245209114194e+04 
       8.297306951075e-03       4.258064077606e+04 
       8.395651057279e-03       4.270388393476e+04 
       8.494039273238e-03       4.282191764197e+04 
       8.592470745275e-03       4.293479361727e+04 
       8.690944671840e-03       4.304258196062e+04 
       8.789460301109e-03       4.314539565903e+04 
       8.888016928741e-03       4.324326996207e+04 
       8.986613895789e-03       4.333629554246e+04 
       9.085250586731e-03       4.342452685743e+04 
       9.183926427650e-03       4.350805871629e+04 
       9.282640884508e-03       4.358696687739e+04 
       9.381393461552e-03       4.366127987583e+04 
       9.480183699808e-03       4.373110680034e+04 
       9.579011175682e-03       4.379649528601e+04 
       9.677875499646e-03       4.385751738684e+04 
       9.776776315010e-03       4.391421514434e+04 
       9.875713296772e-03       4.396667378792e+04 
       9.974686150551e-03       4.401496452495e+04 
       1.007369461157e-02       4.405913818068e+04 
       1.017273844375e-02       4.409926884249e+04 
       1.027181743879e-02       4.413539967998e+04 
       1.037093141537e-02       4.416760183786e+04 
       1.047008021843e-02       4.419594446966e+04 
       1.056926371837e-02       4.422047407808e+04 
       1.066848181049e-02       4.424125306474e+04 
       1.072483128768e-02       4.425141931850e+04 
       1.076773441430e-02       4.425835405338e+04 
       1.086702147300e-02       4.427180822201e+04 
       1.096634295290e-02       4.428169065335e+04 
       1.106569884298e-02       4.428804998708e+04 
       1.116508915443e-02       4.429095063112e+04 
       1.126451392021e-02       4.429044164699e+04 
       1.136397319468e-02       4.428657564610e+04 
       1.146346705326e-02       4.427941055550e+04 
       1.156299559209e-02       4.426899300575e+04 
       1.166255892777e-02       4.425536791449e+04 
       1.176215719706e-02       4.423862437197e+04 
       1.186179055671e-02       4.421877000474e+04 
       1.196145918316e-02       4.419587209416e+04 
       1.206116327243e-02       4.416998974639e+04 
       1.216090303993e-02       4.414117278633e+04 
       1.226067872034e-02       4.410944738248e+04 
       1.236049056746e-02       4.407487613617e+04 
       1.246033885417e-02       4.403749741069e+04 
       1.256022387229e-02       4.399739329498e+04 
       1.266014593259e-02       4.395459417472e+04 
       1.276010536473e-02       4.390910107310e+04 
       1.286010251723e-02       4.386104705790e+04 
       1.296013775750e-02       4.381037620503e+04 
       1.306021147186e-02       4.375721076383e+04 
       1.316032406555e-02       4.370155789844e+04 
       1.326047596282e-02       4.364346513367e+04 
       1.336066760699e-02       4.358302651493e+04 
       1.346089946054e-02       4.352021091207e+04 
       1.356117200522e-02       4.345506769394e+04 
       1.366148574215e-02       4.338771040206e+04 
       1.376184119200e-02       4.331810991703e+04 
       1.386223889512e-02       4.324632941811e+04 
       1.396267941168e-02       4.317242399925e+04 
       1.406316332191e-02       4.309640975899e+04 
       1.416369122627e-02       4.301838728305e+04 
       1.426426374567e-02       4.293825346929e+04 
       1.436488152169e-02       4.285620429931e+04 
       1.446554521684e-02       4.277218184703e+04 
       1.456625551481e-02       4.268628835433e+04 
       1.466701312076e-02       4.259850188785e+04 
       1.476781876160e-02       4.250889847570e+04 
       1.486867318628e-02       4.241751214328e+04 
       1.496957716616e-02       4.232437018519e+04 
       1.507053149530e-02       4.222948371278e+04 
       1.517153699083e-02       4.213292431359e+04 
       1.527259449333e-02       4.203474204374e+04 
       1.537370486720e-02       4.193491536638e+04 
       1.547486900107e-02       4.183358936885e+04 
       1.557608780821e-02       4.173061949777e+04 
       1.567736222699e-02       4.162619846625e+04 
       1.577869322128e-02       4.152030143464e+04 
       1.588008178097e-02       4.141289742715e+04 
       1.598152892246e-02       4.130417274451e+04 
       1.608303568910e-02       4.119402639093e+04 
       1.618460315180e-02       4.108250631304e+04 
       1.628623240951e-02       4.096966947027e+04 
       1.638792458979e-02       4.085562085330e+04 
       1.648968084943e-02       4.074028084554e+04 
       1.659150237500e-02       4.062375716978e+04 
       1.669339038352e-02       4.050594654697e+04 
       1.679534612307e-02       4.038703814445e+04 
       1.689737087345e-02       4.026695103516e+04 
       1.699946594690e-02       4.014579185505e+04 
       1.710163268879e-02       4.002357533607e+04 
       1.720387247834e-02       3.990033476498e+04 
       1.730618672941e-02       3.977598666784e+04 
       1.740857689126e-02       3.965070250470e+04 
       1.751104444935e-02       3.952446841897e+04 
       1.761359092622e-02       3.939729384762e+04 
       1.771621788228e-02       3.926936315587e+04 
       1.781892691677e-02       3.914025660929e+04 
       1.792171966864e-02       3.901038693630e+04 
       1.802459781749e-02       3.887971172486e+04 
       1.812756308460e-02       3.874826007349e+04 
       1.823061723387e-02       3.861598716655e+04 
       1.833376207294e-02       3.848302016852e+04 
       1.843699945421e-02       3.834933981506e+04 
       1.854033127596e-02       3.821482692075e+04 
       1.864375948354e-02       3.807978485148e+04 
       1.874728607052e-02       3.794396114131e+04 
       1.885091307993e-02       3.780751446278e+04 
       1.895464260553e-02       3.767050047795e+04 
       1.905847679309e-02       3.753291091944e+04 
       1.916241784181e-02       3.739479171604e+04 
       1.926646800562e-02       3.725603240112e+04 
       1.937062959473e-02       3.711670384673e+04 
       1.947490497703e-02       3.697703045940e+04 
       1.957929657969e-02       3.683676103222e+04 
       1.968380689075e-02       3.669607685509e+04 
       1.978843846073e-02       3.655489654062e+04 
       1.989319390439e-02       3.641336671454e+04 
       1.999807590245e-02       3.627139646914e+04 
       2.010308720343e-02       3.612909096318e+04 
       2.020823062557e-02       3.598641312504e+04 
       2.031350905871e-02       3.584328218938e+04 
       2.041892546640e-02       3.569998593321e+04 
       2.052448288792e-02       3.555629824138e+04 
       2.063018444051e-02       3.541233417815e+04 
       2.073603332157e-02       3.526814289001e+04 
       2.084203281100e-02       3.512366057252e+04 
       2.094818627365e-02       3.497886498731e+04 
       2.105449716174e-02       3.483395924385e+04 
       2.116096901752e-02       3.468881674734e+04 
       2.126760547593e-02       3.454353670887e+04 
       2.137441026739e-02       3.439800147007e+04 
       2.148138722068e-02       3.425237902704e+04 
       2.158854026595e-02       3.410659207415e+04 
       2.169587343784e-02       3.396066439017e+04 
       2.180339087868e-02       3.381464730154e+04 
       2.191109684188e-02       3.366852299798e+04 
       2.201899569540e-02       3.352228275081e+04 
       2.212709192539e-02       3.337612746310e+04 
       2.223539013991e-02       3.322976286435e+04 
       2.234389507290e-02       3.308338703921e+04 
       2.245261158821e-02       3.293706257329e+04 
       2.256154468385e-02       3.279074161661e+04 
       2.267069949639e-02       3.264431587274e+04 
       2.278008130557e-02       3.249793307589e+04 
       2.288969553903e-02       3.235159847057e+04 
       2.299954777733e-02       3.220527066467e+04 
       2.310964375908e-02       3.205892790710e+04 
       2.321998938642e-02       3.191283915059e+04 
       2.333059073056e-02       3.176662176271e+04 
       2.344145403772e-02       3.162062093266e+04 
       2.355258573524e-02       3.147467682851e+04 
       2.366399243796e-02       3.132881856574e+04 
       2.377568095491e-02       3.118305339084e+04 
       2.388765829629e-02       3.103737684400e+04 
       2.399993168077e-02       3.089198908254e+04 
       2.411250854307e-02       3.074661436576e+04 
       2.422539654196e-02       3.060140697707e+04 
       2.433860356859e-02       3.045635996953e+04 
       2.445213775520e-02       3.031147746424e+04 
       2.456600748427e-02       3.016675707780e+04 
       2.468022139806e-02       3.002219769414e+04 
       2.479478840868e-02       2.987782162050e+04 
       2.490971770854e-02       2.973375164130e+04 
       2.502501878140e-02       2.958978017417e+04 
       2.514070141396e-02       2.944601888065e+04 
       2.525677570795e-02       2.930254106895e+04 
       2.537325209291e-02       2.915918652377e+04 
       2.549014133959e-02       2.901623902634e+04 
       2.560745457402e-02       2.887336918096e+04 
       2.572520329234e-02       2.873068377100e+04 
       2.584339937636e-02       2.858831222985e+04 
       2.596205511003e-02       2.844627055055e+04 
       2.608118319667e-02       2.830442298248e+04 
       2.620079677725e-02       2.816280059863e+04 
       2.632090944957e-02       2.802146924375e+04 
       2.644153528857e-02       2.788047246829e+04 
       2.656268886774e-02       2.773956711640e+04 
       2.668438528172e-02       2.759907345292e+04 
       2.680664017026e-02       2.745883497922e+04 
       2.692946974346e-02       2.731880543462e+04 
       2.705289080857e-02       2.717916119068e+04 
       2.717692079836e-02       2.703969952935e+04 
       2.730157780110e-02       2.690046195337e+04 
       2.742688059249e-02       2.676159109768e+04 
       2.755284866939e-02       2.662304481124e+04 
       2.767950228580e-02       2.648477872685e+04 
       2.780686249094e-02       2.634673231307e+04 
       2.793495116984e-02       2.620898455383e+04 
       2.806379108652e-02       2.607161341574e+04 
       2.819340592993e-02       2.593440042148e+04 
       2.832382036298e-02       2.579754785904e+04 
       2.845506007482e-02       2.566099771026e+04 
       2.858715183659e-02       2.552468409290e+04 
       2.872012356109e-02       2.538866416844e+04 
       2.885400436650e-02       2.525296720600e+04 
       2.898882464463e-02       2.511764025227e+04 
       2.912461613400e-02       2.498227006214e+04 
       2.926141199827e-02       2.484740651549e+04 
       2.939924691029e-02       2.471273612354e+04 
       2.953815714251e-02       2.457836031116e+04 
       2.967818066417e-02       2.444419712829e+04 
       2.981935724591e-02       2.431034884376e+04 
       2.996172857251e-02       2.417665328326e+04 
       3.010533836449e-02       2.404333317135e+04 
       3.025023250948e-02       2.391018857933e+04 
       3.039645920424e-02       2.377724588840e+04 
       3.054406910836e-02       2.364451368292e+04 
       3.069311551090e-02       2.351210801405e+04 
       3.084365451118e-02       2.337979114486e+04 
       3.099574521522e-02       2.324780311026e+04 
       3.114944994949e-02       2.311590391004e+04 
       3.130483449372e-02       2.298419738743e+04 
       3.146196833501e-02       2.285264376942e+04 
       3.162092494534e-02       2.272132113436e+04 
       3.178178208528e-02       2.259007351821e+04 
       3.194462213687e-02       2.245902589022e+04 
       3.210953246892e-02       2.232806999308e+04 
       3.227660583871e-02       2.219721071270e+04 
       3.244594083441e-02       2.206643955827e+04 
       3.261764236309e-02       2.193579790985e+04 
       3.279182219027e-02       2.180510806443e+04 
       3.296859953727e-02       2.167460817901e+04 
       3.314810174411e-02       2.154408792301e+04 
       3.333046500643e-02       2.141354361132e+04 
       3.351583519656e-02       2.128293503590e+04 
       3.370436878034e-02       2.115233950654e+04 
       3.389623384307e-02       2.102179728429e+04 
       3.409161124033e-02       2.089103297513e+04 
       3.429069589206e-02       2.076019957753e+04 
       3.449369824139e-02       2.062910789752e+04 
       3.470084590345e-02       2.049796197756e+04 
       3.491238553415e-02       2.036659139761e+04 
       3.512858495416e-02       2.023495214880e+04 
       3.534973557020e-02       2.010298363655e+04 
       3.557615514375e-02       1.997073868456e+04 
       3.580819096709e-02       1.983806622527e+04 
       3.604622351893e-02       1.970506499938e+04 
       3.629067068657e-02       1.957146964164e+04 
       3.654199266004e-02       1.943740112789e+04 
       3.680069762652e-02       1.930271037610e+04 
       3.706734842189e-02       1.916731617248e+04 
       3.734257033169e-02       1.903123255175e+04 
       3.762706027869e-02       1.889421776447e+04 
       3.792159769073e-02       1.875628248433e+04 
       3.822705741365e-02       1.861726806915e+04 
       3.854442512508e-02       1.847712332422e+04 
       3.887481582005e-02       1.833568792241e+04 
       3.921949608648e-02       1.819260202792e+04 
       3.957991107594e-02       1.804794495474e+04 
       3.995771731366e-02       1.790136939084e+04 
