# dimensionless total lensed [l(l+1)/2pi] C_l's
# for l=2 to 5500, i.e. number of multipoles equal to 5499
#
# -> if you prefer output in CAMB/HealPix/LensPix units/order, set 'format' to 'camb' in input file
# -> if you don't want to see such a header, set 'headers' to 'no' in input file
# -> for CMB lensing (phi), these are C_l^phi-phi for the lensing potential.
#    Remember the conversion factors:
#    C_l^dd (deflection) = l(l+1) C_l^phi-phi
#    C_l^gg (shear/convergence) = 1/4 (l(l+1))^2 C_l^phi-phi
#
# 1:l     2:TT                     3:EE                     4:TE                     5:BB                     6:phiphi                 7:TPhi                   8:Ephi               
    2       1.949808849802e-10       4.470144970190e-15       3.054865118473e-13       1.753561318440e-19       6.652975221279e-09       6.849934298186e-10      -1.814713421473e-12 
    3       1.730611671838e-10       5.126927629155e-15       3.638550536998e-13       3.508047238878e-19       4.127037315436e-09       4.719774119821e-10      -1.280878048643e-12 
    4       1.564253815868e-10       3.880003024006e-15       3.434991299656e-13       5.848776817056e-19       2.877108413487e-09       3.504812595692e-10      -7.377737773752e-13 
    5       1.447026238621e-10       2.267568730640e-15       2.901625208520e-13       8.776918976792e-19       2.148729222018e-09       2.729403634810e-10      -3.184838909918e-13 
    6       1.366361173001e-10       1.179337603491e-15       2.306070449923e-13       1.229388186902e-18       1.677415692007e-09       2.196491495355e-10      -4.693474886307e-14 
    7       1.311018687711e-10       6.863150217389e-16       1.794304180200e-13       1.640128045194e-18       1.351509832516e-09       1.811021795640e-10       9.172302039839e-14 
    8       1.274182729828e-10       5.053012823560e-16       1.422655987168e-13       2.110090034762e-18       1.115443230065e-09       1.522073995083e-10       1.308077019296e-13 
    9       1.250610478855e-10       4.094559406798e-16       1.195675030297e-13       2.639465929011e-18       9.382428718639e-10       1.299923524806e-10       1.092516319645e-13 
   10       1.236765317344e-10       3.306430053911e-16       1.090886362567e-13       3.228456755259e-18       8.012670253491e-10       1.125109930347e-10       6.238814456227e-14 
   11       1.230511667964e-10       2.786669224028e-16       1.074245043579e-13       3.877268875613e-18       6.836026511175e-10       9.887554578560e-11       1.666631459206e-14 
   12       1.229176145757e-10       2.606169715369e-16       1.112617953308e-13       4.586110242191e-18       5.969460225025e-10       8.712510783543e-11      -1.480887398954e-14 
   13       1.232203002882e-10       2.664045576872e-16       1.179710056049e-13       5.355186953233e-18       5.257778718154e-10       7.730191696481e-11      -2.786714293476e-14 
   14       1.239064372306e-10       2.870961748875e-16       1.257896563033e-13       6.184700221941e-18       4.665396003050e-10       6.898070705430e-11      -2.613681180362e-14 
   15       1.248787636800e-10       3.235087185001e-16       1.339762066668e-13       7.074843850757e-18       4.166667083409e-10       6.199221003803e-11      -1.636326501853e-14 
   16       1.260927419438e-10       3.798304987556e-16       1.423693095904e-13       8.025802280925e-18       3.742588849853e-10       5.599604173398e-11      -5.545372569215e-15 
   17       1.274855822161e-10       4.572183968588e-16       1.510973863288e-13       9.037749261739e-18       3.378797370665e-10       5.078005975653e-11       1.551991069882e-15 
   18       1.290367682271e-10       5.538529366277e-16       1.605008497881e-13       1.011084686090e-17       3.063103285260e-10       4.623659541822e-11       3.141100243307e-15 
   19       1.307622622400e-10       6.692089075943e-16       1.705963965315e-13       1.124524687629e-17       2.790418743551e-10       4.231028791056e-11       2.089071177072e-16 
   20       1.326171622378e-10       8.028641824290e-16       1.811801736960e-13       1.244108812040e-17       2.550328551084e-10       3.885116918142e-11      -4.930625631937e-15 
   21       1.345869943698e-10       9.549096218875e-16       1.919209269731e-13       1.369850182521e-17       2.339058928936e-10       3.578257630732e-11      -1.010179058571e-14 
   22       1.366352299223e-10       1.125482694750e-15       2.023674397353e-13       1.501760851751e-17       2.151527198580e-10       3.300837023955e-11      -1.314178519926e-14 
   23       1.387803096893e-10       1.315252215411e-15       2.120983087753e-13       1.639852464751e-17       1.985147506328e-10       3.052610253531e-11      -1.367811602097e-14 
   24       1.410307228695e-10       1.525233508901e-15       2.207266756708e-13       1.784135942793e-17       1.836074045036e-10       2.832940997025e-11      -1.214178684061e-14 
   25       1.433714921029e-10       1.757487338061e-15       2.282420934711e-13       1.934622269274e-17       1.702539698557e-10       2.638098480634e-11      -9.511755729654e-15 
   26       1.457651726031e-10       2.014371576838e-15       2.347751225113e-13       2.091322118304e-17       1.582112207814e-10       2.461439154552e-11      -7.047864821815e-15 
   27       1.482130900592e-10       2.297248357065e-15       2.403876392202e-13       2.254246534907e-17       1.473344326648e-10       2.300191553297e-11      -5.517368240759e-15 
   28       1.507172584881e-10       2.607145392155e-15       2.451213767267e-13       2.423406671124e-17       1.374361519193e-10       2.151796868498e-11      -5.425124381112e-15 
   29       1.532834714435e-10       2.945181687846e-15       2.489381852701e-13       2.598814581450e-17       1.284649056537e-10       2.016056761135e-11      -6.442114059651e-15 
   30       1.559044382601e-10       3.312457697441e-15       2.517736227309e-13       2.780482663338e-17       1.203230258864e-10       1.892349162203e-11      -7.830923808596e-15 
   31       1.585619791895e-10       3.710043325957e-15       2.535457602573e-13       2.968423588475e-17       1.128430051781e-10       1.779022706641e-11      -8.803555789615e-15 
   32       1.612622539674e-10       4.139104506597e-15       2.541086204926e-13       3.162650834986e-17       1.059856495089e-10       1.675539327196e-11      -9.180228812529e-15 
   33       1.640109863910e-10       4.600817215753e-15       2.532781028005e-13       3.363178443136e-17       9.970219772161e-11       1.580922136208e-11      -8.973568024794e-15 
   34       1.668065873715e-10       5.096275271516e-15       2.508843158225e-13       3.570020801732e-17       9.390436521987e-11       1.493575160797e-11      -8.258769675035e-15 
   35       1.696526596363e-10       5.626294785838e-15       2.469191570131e-13       3.783192188956e-17       8.856192604479e-11       1.412962970135e-11      -7.305466858596e-15 
   36       1.725480234801e-10       6.191528980952e-15       2.414420025527e-13       4.002707147783e-17       8.363133461836e-11       1.338395037403e-11      -6.500662426003e-15 
   37       1.754860480038e-10       6.792613342102e-15       2.345172907937e-13       4.228580111933e-17       7.904765769997e-11       1.268867822264e-11      -6.209091191970e-15 
   38       1.784670541859e-10       7.430516598468e-15       2.261267783618e-13       4.460823563886e-17       7.479862398517e-11       1.204247964974e-11      -6.392497616381e-15 
   39       1.814886762334e-10       8.106300742459e-15       2.162292997984e-13       4.699449288516e-17       7.087039383094e-11       1.144410350617e-11      -6.864344148092e-15 
   40       1.845416735724e-10       8.821027186392e-15       2.047840514356e-13       4.944468861230e-17       6.722505097843e-11       1.088881908218e-11      -7.387385566817e-15 
   41       1.876145135765e-10       9.575683099585e-15       1.917470759925e-13       5.195892826199e-17       6.381371251863e-11       1.037007235749e-11      -7.735268236305e-15 
   42       1.907105431231e-10       1.037093142908e-14       1.770597384942e-13       5.453727919891e-17       6.062603158873e-11       9.885844115201e-12      -7.909589928868e-15 
   43       1.938352662710e-10       1.120727960752e-14       1.606562198818e-13       5.717978936308e-17       5.765328059565e-11       9.433842842592e-12      -7.987797447660e-15 
   44       1.969912559788e-10       1.208514134029e-14       1.424661540476e-13       5.988649406861e-17       5.487350350068e-11       9.009548907898e-12      -8.065357714975e-15 
   45       2.001793579003e-10       1.300487156271e-14       1.224226128249e-13       6.265741048449e-17       5.225928313453e-11       8.607754413844e-12      -8.232657168137e-15 
   46       2.034034765088e-10       1.396689560877e-14       1.004898383360e-13       6.549252055089e-17       4.980628891001e-11       8.228139599911e-12      -8.494914121652e-15 
   47       2.066666816405e-10       1.497161011590e-14       7.664312970923e-14       6.839178191497e-17       4.751147596642e-11       7.871069140651e-12      -8.830164307495e-15 
   48       2.099695896246e-10       1.601934374887e-14       5.086126831615e-14       7.135513152390e-17       4.536447875842e-11       7.535951437208e-12      -9.211062687658e-15 
   49       2.133101344415e-10       1.711035448018e-14       2.312660543750e-14       7.438248473054e-17       4.334706791660e-11       7.221164182480e-12      -9.604572988632e-15 
   50       2.166849220219e-10       1.824487744477e-14      -6.578209086135e-15       7.747373984906e-17       4.143859653462e-11       6.924586937695e-12      -9.978288944393e-15 
   51       2.200942574379e-10       1.942329012773e-14      -3.828129111814e-14       8.062879535458e-17       3.963534192600e-11       6.645541975470e-12      -1.032214110308e-14 
   52       2.235380867176e-10       2.064598731373e-14      -7.201330969557e-14       8.384753580627e-17       3.793547511870e-11       6.383251591481e-12      -1.063204542895e-14 
   53       2.270143822865e-10       2.191333409973e-14      -1.078044592373e-13       8.712982618274e-17       3.633327520589e-11       6.136232356091e-12      -1.090378814141e-14 
   54       2.305189886255e-10       2.322566555525e-14      -1.456845299492e-13       9.047551124416e-17       3.481886806181e-11       5.902249244756e-12      -1.113302732991e-14 
   55       2.340475885809e-10       2.458316458517e-14      -1.856759698926e-13       9.388443506313e-17       3.338120797820e-11       5.678961539915e-12      -1.131580227199e-14 
   56       2.376025278939e-10       2.598546076581e-14      -2.277708915884e-13       9.735650676025e-17       3.201848853676e-11       5.466153518473e-12      -1.145020585317e-14 
   57       2.411874156882e-10       2.743193125602e-14      -2.719484766802e-13       1.008916499814e-16       3.072986036131e-11       5.263977570774e-12      -1.153513044064e-14 
   58       2.448050821977e-10       2.892180888880e-14      -3.181812855805e-13       1.044897843046e-16       2.951228279220e-11       5.072292474698e-12      -1.156981751051e-14 
   59       2.484575070469e-10       3.045417708621e-14      -3.664350548240e-13       1.081508253878e-16       2.836038894973e-11       4.890644478199e-12      -1.155387904328e-14 
   60       2.521457475320e-10       3.202796477421e-14      -4.166684944211e-13       1.118746851169e-16       2.726635079766e-11       4.718248381846e-12      -1.148731891939e-14 
   61       2.558703057971e-10       3.364210340383e-14      -4.688422142539e-13       1.156612945324e-16       2.622203361070e-11       4.554221287421e-12      -1.137157145952e-14 
   62       2.596324889233e-10       3.529605070409e-14      -5.229483030618e-13       1.195106782893e-16       2.522632974950e-11       4.398387951727e-12      -1.121284104648e-14 
   63       2.634332282485e-10       3.698937600248e-14      -5.789870593917e-13       1.234228972489e-16       2.427923907447e-11       4.250623456399e-12      -1.101955349549e-14 
   64       2.672726107621e-10       3.872160854986e-14      -6.369585337100e-13       1.273980280285e-16       2.337966373910e-11       4.110605808702e-12      -1.080145766257e-14 
   65       2.711498213119e-10       4.049223757891e-14      -6.968626154122e-13       1.314361638720e-16       2.252534589449e-11       3.977805040971e-12      -1.056967911330e-14 
   66       2.750630848103e-10       4.230071236255e-14      -7.586991198350e-13       1.355374155206e-16       2.171280539387e-11       3.851472310051e-12      -1.033677379154e-14 
   67       2.790096084410e-10       4.414644227230e-14      -8.224678752668e-13       1.397019120836e-16       2.093727749716e-11       3.730628996744e-12      -1.011678168828e-14 
   68       2.829866763615e-10       4.602872218082e-14      -8.881636689280e-13       1.439297951343e-16       2.019397359868e-11       3.614319145891e-12      -9.922267063745e-15 
   69       2.869953205718e-10       4.794649098646e-14      -9.557597012361e-13       1.482211976626e-16       1.948229930101e-11       3.502450550267e-12      -9.754622730353e-15 
   70       2.910372934556e-10       4.989852403955e-14      -1.025220919846e-12       1.525762624025e-16       1.880238305068e-11       3.395105293235e-12      -9.611888548523e-15 
   71       2.951139532863e-10       5.188350165128e-14      -1.096508820367e-12       1.569951489140e-16       1.815380078944e-11       3.292287396472e-12      -9.491568063723e-15 
   72       2.992262359097e-10       5.390000724274e-14      -1.169581401892e-12       1.614780342806e-16       1.753554749570e-11       3.193918654461e-12      -9.390605104981e-15 
   73       3.033746264262e-10       5.594652549399e-14      -1.244393122519e-12       1.660251138067e-16       1.694600872599e-11       3.099834468991e-12      -9.305360383400e-15 
   74       3.075591308728e-10       5.802144049310e-14      -1.320894854886e-12       1.706366017155e-16       1.638293215637e-11       3.009779683650e-12      -9.231588090684e-15 
   75       3.117792479052e-10       6.012303388518e-14      -1.399033841690e-12       1.753127318456e-16       1.584339912390e-11       2.923404418323e-12      -9.164412497649e-15 
   76       3.160343746581e-10       6.224955600718e-14      -1.478756303347e-12       1.800537307670e-16       1.532454230817e-11       2.840353754208e-12      -9.099187909529e-15 
   77       3.203251723649e-10       6.439945835929e-14      -1.560015908242e-12       1.848597299256e-16       1.482591277500e-11       2.760564877864e-12      -9.034311304705e-15 
   78       3.246523994744e-10       6.657120036000e-14      -1.642766773449e-12       1.897308386700e-16       1.434749487658e-11       2.684016806681e-12      -8.968882461375e-15 
   79       3.290164804648e-10       6.876317977254e-14      -1.726960959375e-12       1.946671705425e-16       1.388898545848e-11       2.610639140618e-12      -8.901860899998e-15 
   80       3.334174864295e-10       7.097373235056e-14      -1.812548479675e-12       1.996688434108e-16       1.344978070135e-11       2.540309821174e-12      -8.832060595757e-15 
   81       3.378551156620e-10       7.320113148386e-14      -1.899477311161e-12       2.047359795994e-16       1.302896296252e-11       2.472852890370e-12      -8.758144691027e-15 
   82       3.423286742415e-10       7.544358784400e-14      -1.987693403712e-12       2.098687060224e-16       1.262528761772e-11       2.408036249727e-12      -8.678620207834e-15 
   83       3.468370566183e-10       7.769924903004e-14      -2.077140690187e-12       2.150671543142e-16       1.223716990266e-11       2.345569419240e-12      -8.591832760325e-15 
   84       3.513791602187e-10       7.996621699151e-14      -2.167761232320e-12       2.203314721282e-16       1.186306581415e-11       2.285174158250e-12      -8.496567453174e-15 
   85       3.559552507592e-10       8.224260439227e-14      -2.259495664501e-12       2.256618588930e-16       1.150271618899e-11       2.226814688570e-12      -8.393977615869e-15 
   86       3.605657887294e-10       8.452648698437e-14      -2.352282842075e-12       2.310585362525e-16       1.115608570072e-11       2.170501706123e-12      -8.285967603927e-15 
   87       3.652110035548e-10       8.681588660684e-14      -2.446059723918e-12       2.365217377426e-16       1.082298069830e-11       2.116221910986e-12      -8.174619870007e-15 
   88       3.698908814765e-10       8.910877113011e-14      -2.540761384630e-12       2.420517091097e-16       1.050304267060e-11       2.063936990929e-12      -8.062199864377e-15 
   89       3.746051534314e-10       9.140305440050e-14      -2.636321026734e-12       2.476487086311e-16       1.019574171089e-11       2.013582604970e-12      -7.951160935372e-15 
   90       3.793532829317e-10       9.369659618463e-14      -2.732669992870e-12       2.533130074339e-16       9.900369981344e-12       1.965067366915e-12      -7.844149229863e-15 
   91       3.841344539449e-10       9.598720211394e-14      -2.829737777993e-12       2.590448898146e-16       9.616035177534e-12       1.918271828911e-12      -7.744008593719e-15 
   92       3.889475587735e-10       9.827262362909e-14      -2.927452041569e-12       2.648446535589e-16       9.341653992927e-12       1.873047464987e-12      -7.653785472268e-15 
   93       3.937915130065e-10       1.005506078138e-13      -3.025739137412e-12       2.707126408161e-16       9.076206458935e-12       1.829252072863e-12      -7.575973760030e-15 
   94       3.986662808836e-10       1.028190555902e-13      -3.124525767865e-12       2.766493353409e-16       8.819556917889e-12       1.786864277779e-12      -7.510108787553e-15 
   95       4.035719824546e-10       1.050758873243e-13      -3.223737602116e-12       2.826552805356e-16       8.571745015500e-12       1.745884450858e-12      -7.454818846716e-15 
   96       4.085085727199e-10       1.073189956770e-13      -3.323298799767e-12       2.887310509271e-16       8.332732912203e-12       1.706299315689e-12      -7.408547540135e-15 
   97       4.134758340008e-10       1.095462462338e-13      -3.423132030136e-12       2.948772529057e-16       8.102402328648e-12       1.668081431777e-12      -7.369548248532e-15 
   98       4.184733683079e-10       1.117554781339e-13      -3.523158491557e-12       3.010945254644e-16       7.880551591196e-12       1.631188677998e-12      -7.335878598110e-15 
   99       4.235005897118e-10       1.139445046994e-13      -3.623297930688e-12       3.073835409376e-16       7.666892677406e-12       1.595563736056e-12      -7.305394927924e-15 
  100       4.285567167117e-10       1.161111140648e-13      -3.723468661805e-12       3.137450057397e-16       7.461048261535e-12       1.561133573933e-12      -7.275746757250e-15 
  101       4.336407646049e-10       1.182530698061e-13      -3.823587586108e-12       3.201796611048e-16       7.262548760026e-12       1.527808929347e-12      -7.244371252961e-15 
  102       4.387515378570e-10       1.203681115700e-13      -3.923570211026e-12       3.266882838248e-16       7.070829377000e-12       1.495483793206e-12      -7.208487696896e-15 
  103       4.438876224706e-10       1.224539557036e-13      -4.023330669511e-12       3.332716869889e-16       6.885227149753e-12       1.464034893059e-12      -7.165091953231e-15 
  104       4.490476519106e-10       1.245083512824e-13      -4.122782839163e-12       3.399306658669e-16       6.705129731004e-12       1.433350483985e-12      -7.111657892403e-15 
  105       4.542311622258e-10       1.265292554600e-13      -4.221843830169e-12       3.466658256416e-16       6.530450988793e-12       1.403422263167e-12      -7.048361490668e-15 
  106       4.594378387539e-10       1.285146830895e-13      -4.320431006713e-12       3.534777316752e-16       6.361214444237e-12       1.374264966454e-12      -6.976148258224e-15 
  107       4.646672483128e-10       1.304626546621e-13      -4.418460960237e-12       3.603669624205e-16       6.197406000361e-12       1.345887977540e-12      -6.896055320986e-15 
