# Matter power spectrum P(k) at redshift z=0
# for k=9.01777e-06 to 20.5825 h/Mpc,
# number of wavenumbers equal to 855
#    1:k (h/Mpc)              2:P (Mpc/h)^3        
       9.017768204720e-06       7.367426636807e+01 
       2.013117065551e-05       1.597980883206e+02 
       3.127368623152e-05       2.443490116900e+02 
       4.246761821429e-05       3.281783453996e+02 
       5.373554514272e-05       4.117467086072e+02 
       6.510047082172e-05       4.953839088375e+02 
       7.658597794245e-05       5.793611231153e+02 
       8.821638686582e-05       6.639198820612e+02 
       1.000169211334e-04       7.492864451032e+02 
       1.120138812866e-04       8.356800450467e+02 
       1.242348285901e-04       9.233182465103e+02 
       1.367087802636e-04       1.012420778235e+03 
       1.494664178164e-04       1.103212543865e+03 
       1.625403100413e-04       1.195926153548e+03 
       1.759651521417e-04       1.290804181185e+03 
       1.897780223194e-04       1.388101305459e+03 
       2.040186569110e-04       1.488086332867e+03 
       2.187297447984e-04       1.591044235652e+03 
       2.339572412864e-04       1.697278159088e+03 
       2.497507008914e-04       1.807111438106e+03 
       2.661636274439e-04       1.920889609705e+03 
       2.832538385149e-04       2.038982402378e+03 
       3.010838393218e-04       2.161785651736e+03 
       3.197211988802e-04       2.289723099361e+03 
       3.392389181229e-04       2.423247982980e+03 
       3.597157759348e-04       2.562844310951e+03 
       3.812366344790e-04       2.709027694544e+03 
       4.038926798210e-04       2.862345548881e+03 
       4.277815677867e-04       3.023376461999e+03 
       4.530074384697e-04       3.192728487747e+03 
       4.796807563165e-04       3.371036082151e+03 
       5.079179270207e-04       3.558955357380e+03 
       5.378406386927e-04       3.757157405940e+03 
       5.695748744280e-04       3.966319299781e+03 
       6.032495483134e-04       4.187112660176e+03 
       6.389947290495e-04       4.420189543849e+03 
       6.769394364803e-04       4.666165859351e+03 
       7.172090273991e-04       4.925602374370e+03 
       7.599222275715e-04       5.198984103660e+03 
       8.051879143593e-04       5.486698841554e+03 
       8.531018034307e-04       5.789016036075e+03 
       9.037432361260e-04       6.106067506847e+03 
       9.571722920002e-04       6.437831650854e+03 
       1.013427455223e-03       6.784122583713e+03 
       1.072524038191e-03       7.144585523691e+03 
       1.134453510456e-03       7.518699016605e+03 
       1.199183801970e-03       7.905784770715e+03 
       1.237436309153e-03       8.132646349774e+03 
       1.266660558409e-03       8.305023308824e+03 
       1.336809238052e-03       8.715475251484e+03 
       1.409537868692e-03       9.136106234911e+03 
       1.484740239600e-03       9.565813273907e+03 
       1.562299291522e-03       1.000345165979e+04 
       1.642090484503e-03       1.044786014729e+04 
       1.723984961446e-03       1.089788408943e+04 
       1.807852375162e-03       1.135239503662e+04 
       1.893563298875e-03       1.181030689190e+04 
       1.980991187410e-03       1.227058837060e+04 
       2.070013894393e-03       1.273227087003e+04 
       2.160514777863e-03       1.319445402165e+04 
       2.252383443363e-03       1.365630796553e+04 
       2.345516181282e-03       1.411707393196e+04 
       2.439816156371e-03       1.457606255259e+04 
       2.535193403933e-03       1.503265129386e+04 
       2.631564681181e-03       1.548628150513e+04 
       2.728853215055e-03       1.593645419963e+04 
       2.826988380429e-03       1.638272550932e+04 
       2.925905335651e-03       1.682470406392e+04 
       3.025544636276e-03       1.726204350166e+04 
       3.125851842553e-03       1.769444306486e+04 
       3.226777131995e-03       1.812163951837e+04 
       3.328274924875e-03       1.854340546645e+04 
       3.430303527867e-03       1.895954720221e+04 
       3.532824798954e-03       1.936989760277e+04 
       3.635803835260e-03       1.977431844902e+04 
       3.739208684334e-03       2.017269169779e+04 
       3.843010078631e-03       2.056492336999e+04 
       3.947181192420e-03       2.095093818740e+04 
       4.051697420008e-03       2.133067388928e+04 
       4.156536173955e-03       2.170408384209e+04 
       4.261676701857e-03       2.207114227981e+04 
       4.367099920266e-03       2.243182318393e+04 
       4.472788264292e-03       2.278611823024e+04 
       4.578725551528e-03       2.313402581998e+04 
       4.684896858992e-03       2.347555192410e+04 
       4.791288411857e-03       2.381071398514e+04 
       4.897887482858e-03       2.413953521751e+04 
       5.004682301321e-03       2.446203831607e+04 
       5.111661970888e-03       2.477825945229e+04 
       5.218816395059e-03       2.508823375988e+04 
       5.326136209784e-03       2.539199980446e+04 
       5.433612722403e-03       2.568960876111e+04 
       5.541237856288e-03       2.598110517812e+04 
       5.649004100628e-03       2.626653631742e+04 
       5.756904464843e-03       2.654595669132e+04 
       5.864932437163e-03       2.681942154324e+04 
       5.973081946959e-03       2.708698617449e+04 
       6.081347330465e-03       2.734870303720e+04 
       6.189723299550e-03       2.760463917492e+04 
       6.298204913243e-03       2.785484114632e+04 
       6.406787551753e-03       2.809937640090e+04 
       6.515466892733e-03       2.833831432538e+04 
       6.624238889588e-03       2.857170340126e+04 
       6.733099751614e-03       2.879960794271e+04 
       6.842045925821e-03       2.902209145908e+04 
       6.951074080257e-03       2.923921257397e+04 
       7.060181088721e-03       2.945104511240e+04 
       7.169364016712e-03       2.965763559050e+04 
       7.278620108523e-03       2.985906070838e+04 
       7.387946775368e-03       3.005536860586e+04 
       7.497341584446e-03       3.024663104102e+04 
       7.606802248869e-03       3.043290438943e+04 
       7.716326618374e-03       3.061425769752e+04 
       7.825912670749e-03       3.079074058021e+04 
       7.935558503913e-03       3.096241871982e+04 
       8.045262328602e-03       3.112935363433e+04 
       8.155022461594e-03       3.129160272288e+04 
       8.264837319447e-03       3.144921301200e+04 
       8.374705412693e-03       3.160226283491e+04 
       8.484625340461e-03       3.175079338471e+04 
       8.594595785482e-03       3.189488631720e+04 
       8.704615509463e-03       3.203457322885e+04 
       8.814683348788e-03       3.216992363095e+04 
       8.924798210516e-03       3.230098586435e+04 
       9.034959068675e-03       3.242782137270e+04 
       9.145164960802e-03       3.255047737850e+04 
       9.255414984729e-03       3.266903062963e+04 
       9.365708295591e-03       3.278350514335e+04 
       9.476044103039e-03       3.289396803259e+04 
       9.586421668641e-03       3.300046445644e+04 
       9.696840303463e-03       3.310307252912e+04 
       9.807299365809e-03       3.320181142552e+04 
       9.917798259121e-03       3.329674519625e+04 
       1.002833643001e-02       3.338791909692e+04 
       1.013891336643e-02       3.347539606159e+04 
       1.024952859596e-02       3.355921517612e+04 
       1.036018168421e-02       3.363941635354e+04 
       1.047087223335e-02       3.371607352810e+04 
       1.058159988071e-02       3.378921436512e+04 
       1.069236429745e-02       3.385889743284e+04 
       1.080316518742e-02       3.392517339202e+04 
       1.091400228596e-02       3.398806735417e+04 
       1.102487535892e-02       3.404764351842e+04 
       1.113578420160e-02       3.410393938523e+04 
       1.124672863791e-02       3.415700433321e+04 
       1.135770851948e-02       3.420687872640e+04 
       1.146872372489e-02       3.425359143810e+04 
       1.157977415889e-02       3.429722551328e+04 
       1.169085975180e-02       3.433778622423e+04 
       1.180198045879e-02       3.437534786841e+04 
       1.191313625937e-02       3.440991796266e+04 
       1.202432715680e-02       3.444155577762e+04 
       1.213555317760e-02       3.447030515997e+04 
       1.224681437110e-02       3.449620192166e+04 
       1.235811080903e-02       3.451929822578e+04 
       1.237436309153e-02       3.452242626251e+04 
       1.246944258512e-02       3.453961155681e+04 
       1.258080981472e-02       3.455720520706e+04 
       1.269221263455e-02       3.457210454703e+04 
       1.280365120235e-02       3.458435314411e+04 
       1.291512569667e-02       3.459398290080e+04 
       1.302663631659e-02       3.460104776146e+04 
       1.313818328155e-02       3.460556629068e+04 
       1.324976683118e-02       3.460758850212e+04 
       1.336138722513e-02       3.460714479293e+04 
       1.347304474295e-02       3.460427449411e+04 
       1.358473968398e-02       3.459902190732e+04 
       1.369647236726e-02       3.459140320917e+04 
       1.380824313151e-02       3.458147159672e+04 
       1.392005233503e-02       3.456924360906e+04 
       1.403190035574e-02       3.455478650520e+04 
       1.414378759114e-02       3.453810685141e+04 
       1.425571445833e-02       3.451925836253e+04 
       1.436768139409e-02       3.449825315058e+04 
       1.447968885487e-02       3.447513034170e+04 
       1.459173731692e-02       3.444993884624e+04 
       1.470382727637e-02       3.442269291779e+04 
       1.481595924932e-02       3.439344400002e+04 
       1.492813377198e-02       3.436219339496e+04 
       1.504035140080e-02       3.432902371126e+04 
       1.515261271265e-02       3.429390280296e+04 
       1.526491830498e-02       3.425692451442e+04 
       1.537726879602e-02       3.421808279763e+04 
       1.548966482496e-02       3.417742283314e+04 
       1.560210705222e-02       3.413496139969e+04 
       1.571459615965e-02       3.409076139462e+04 
       1.582713285081e-02       3.404479617403e+04 
       1.593971785121e-02       3.399713020340e+04 
       1.605235190863e-02       3.394781462303e+04 
       1.616503579341e-02       3.389684211861e+04 
       1.627777029876e-02       3.384424681653e+04 
       1.639055624109e-02       3.379007334625e+04 
       1.650339446038e-02       3.373434294309e+04 
       1.661628582054e-02       3.367706637337e+04 
       1.672923120979e-02       3.361831552160e+04 
       1.684223154105e-02       3.355806245797e+04 
       1.695528775235e-02       3.349641126023e+04 
       1.706840080732e-02       3.343327799572e+04 
       1.718157169555e-02       3.336876591721e+04 
       1.729480143313e-02       3.330291384936e+04 
       1.740809106312e-02       3.323569928450e+04 
       1.752144165602e-02       3.316718093503e+04 
       1.763485431034e-02       3.309738611268e+04 
       1.774833015309e-02       3.302630952148e+04 
       1.786187034040e-02       3.295397218580e+04 
       1.797547605804e-02       3.288046458562e+04 
       1.808914852206e-02       3.280576119663e+04 
       1.820288897940e-02       3.272988771771e+04 
       1.831669870852e-02       3.265284790296e+04 
       1.843057902006e-02       3.257473259036e+04 
       1.854453125757e-02       3.249549631673e+04 
       1.865855679814e-02       3.241522323894e+04 
       1.877265705321e-02       3.233387856496e+04 
       1.888683346926e-02       3.225155725657e+04 
       1.900108752863e-02       3.216815144787e+04 
       1.911542075032e-02       3.208383034765e+04 
       1.922983469077e-02       3.199858768656e+04 
       1.934433094480e-02       3.191237794933e+04 
       1.945891114643e-02       3.182527125415e+04 
       1.957357696982e-02       3.173724214274e+04 
       1.968833013019e-02       3.164835457340e+04 
       1.980317238481e-02       3.155861315926e+04 
       1.991810553402e-02       3.146811523838e+04 
       2.003313142220e-02       3.137675920508e+04 
       2.014825193893e-02       3.128465585416e+04 
       2.026346902000e-02       3.119174232985e+04 
       2.037878464861e-02       3.109809562944e+04 
       2.049420085653e-02       3.100373423180e+04 
       2.060971972528e-02       3.090872700104e+04 
       2.072534338742e-02       3.081295995947e+04 
       2.084107402784e-02       3.071657087168e+04 
       2.095691388505e-02       3.061949299326e+04 
       2.107286525261e-02       3.052180569714e+04 
       2.118893048051e-02       3.042356225031e+04 
       2.130511197668e-02       3.032461649577e+04 
       2.142141220844e-02       3.022514920479e+04 
       2.153783370415e-02       3.012522924507e+04 
       2.165437905476e-02       3.002466938138e+04 
       2.177105091553e-02       2.992363113509e+04 
       2.188785200770e-02       2.982204989883e+04 
       2.200478512035e-02       2.972003825234e+04 
       2.212185311220e-02       2.961745813779e+04 
       2.223905891351e-02       2.951452369421e+04 
       2.235640552811e-02       2.941107493073e+04 
       2.247389603537e-02       2.930727041050e+04 
       2.259153359238e-02       2.920302170070e+04 
       2.270932143609e-02       2.909843546771e+04 
       2.282726288560e-02       2.899348685962e+04 
       2.294536134450e-02       2.888807450463e+04 
       2.306362030328e-02       2.878233902676e+04 
       2.318204334185e-02       2.867634517607e+04 
       2.330063413216e-02       2.856999978592e+04 
       2.341939644087e-02       2.846328587751e+04 
       2.353833413217e-02       2.835640756042e+04 
       2.365745117065e-02       2.824920266433e+04 
       2.377675162432e-02       2.814173178529e+04 
       2.389623966771e-02       2.803400897048e+04 
       2.401591958514e-02       2.792608247133e+04 
       2.413579577401e-02       2.781789787298e+04 
       2.425587274834e-02       2.770952628450e+04 
       2.437615514233e-02       2.760099605614e+04 
       2.449664771415e-02       2.749212632721e+04 
       2.461735534981e-02       2.738322610556e+04 
       2.473828306724e-02       2.727419822921e+04 
       2.485943602043e-02       2.716498170508e+04 
       2.498081950390e-02       2.705555205479e+04 
       2.510243895716e-02       2.694612241556e+04 
       2.522429996947e-02       2.683644758340e+04 
       2.534640828479e-02       2.672674063545e+04 
       2.546876980687e-02       2.661694290277e+04 
       2.559139060460e-02       2.650705571558e+04 
       2.571427691755e-02       2.639710792693e+04 
       2.583743516177e-02       2.628702106397e+04 
       2.596087193583e-02       2.617688841236e+04 
       2.608459402711e-02       2.606679072963e+04 
       2.620860841833e-02       2.595664686650e+04 
       2.633292229443e-02       2.584646999287e+04 
       2.645754304970e-02       2.573626780471e+04 
       2.658247829524e-02       2.562603770350e+04 
       2.670773586674e-02       2.551581763169e+04 
       2.683332383264e-02       2.540561796931e+04 
       2.695925050260e-02       2.529537667090e+04 
       2.708552443645e-02       2.518525341234e+04 
       2.721215445346e-02       2.507500672791e+04 
       2.733914964208e-02       2.496500277988e+04 
       2.746651937014e-02       2.485488108028e+04 
       2.759427329556e-02       2.474483951950e+04 
       2.772242137749e-02       2.463489438413e+04 
       2.785097388808e-02       2.452512998741e+04 
       2.797994142477e-02       2.441523553646e+04 
       2.810933492320e-02       2.430544798767e+04 
       2.823916567079e-02       2.419583192316e+04 
       2.836944532091e-02       2.408628177987e+04 
       2.850018590792e-02       2.397679968789e+04 
       2.863139986282e-02       2.386738676548e+04 
       2.876310002983e-02       2.375804455995e+04 
       2.889529968376e-02       2.364896732012e+04 
       2.902801254839e-02       2.353990435010e+04 
       2.916125281569e-02       2.343093066038e+04 
       2.929503516625e-02       2.332210021599e+04 
       2.942937479065e-02       2.321343637526e+04 
       2.956428741218e-02       2.310489339205e+04 
       2.969978931066e-02       2.299645708771e+04 
       2.983589734776e-02       2.288812164058e+04 
       2.997262899363e-02       2.277998813603e+04 
       3.011000235518e-02       2.267193307330e+04 
       3.024803620590e-02       2.256409481226e+04 
       3.038675001755e-02       2.245635093218e+04 
       3.052616399362e-02       2.234871898157e+04 
       3.066629910495e-02       2.224129421384e+04 
       3.080717712740e-02       2.213401959766e+04 
       3.094882068192e-02       2.202687827614e+04 
       3.109125327712e-02       2.191985392878e+04 
       3.123449935452e-02       2.181300596041e+04 
       3.137858433671e-02       2.170633314214e+04 
       3.152353467864e-02       2.159978635822e+04 
       3.166937792232e-02       2.149346722790e+04 
       3.181614275507e-02       2.138724594610e+04 
       3.196385907183e-02       2.128113665785e+04 
       3.211255804162e-02       2.117525049723e+04 
       3.226227217867e-02       2.106944217923e+04 
       3.241303541855e-02       2.096386908402e+04 
       3.256488319967e-02       2.085837408949e+04 
       3.271785255073e-02       2.075305668174e+04 
       3.287198218451e-02       2.064783824262e+04 
       3.302731259871e-02       2.054279561871e+04 
       3.318388618428e-02       2.043790720147e+04 
       3.334174734211e-02       2.033312118248e+04 
       3.350094260877e-02       2.022848216093e+04 
       3.366152079208e-02       2.012394411424e+04 
       3.382353311761e-02       2.001955924740e+04 
       3.398703338700e-02       1.991531534673e+04 
       3.415207814938e-02       1.981109675054e+04 
       3.431872688710e-02       1.970704506333e+04 
       3.448704221730e-02       1.960303455295e+04 
       3.465709011093e-02       1.949922827622e+04 
       3.482894013096e-02       1.939540839544e+04 
       3.500266569195e-02       1.929168504331e+04 
       3.517834434320e-02       1.918802445710e+04 
       3.535605807812e-02       1.908452532647e+04 
       3.553589367267e-02       1.898100605063e+04 
       3.571794305632e-02       1.887746289748e+04 
       3.590230371914e-02       1.877400363205e+04 
       3.608907915936e-02       1.867057929743e+04 
       3.627837937633e-02       1.856717631656e+04 
       3.647032141422e-02       1.846376123341e+04 
       3.666502996307e-02       1.836029466481e+04 
       3.686263802426e-02       1.825680861747e+04 
       3.706328764880e-02       1.815330272046e+04 
       3.726713075816e-02       1.804967109110e+04 
       3.747433005868e-02       1.794609454271e+04 
       3.768506006250e-02       1.784224904946e+04 
       3.789950822990e-02       1.773838295074e+04 
       3.811787625070e-02       1.763435004430e+04 
       3.834038148490e-02       1.753015385376e+04 
       3.856725858652e-02       1.742577819212e+04 
       3.879876133894e-02       1.732115999773e+04 
       3.903516473463e-02       1.721631709144e+04 
       3.927676733878e-02       1.711124446846e+04 
       3.952389398344e-02       1.700581195738e+04 
       3.977689884778e-02       1.690001618250e+04 
       4.003616899120e-02       1.679381242156e+04 
       4.030212841933e-02       1.668725100411e+04 
       4.057524277953e-02       1.658025115882e+04 
       4.085602480297e-02       1.647270711985e+04 
       4.114504063566e-02       1.636454307973e+04 
       4.144291723242e-02       1.625574764744e+04 
       4.175035102728e-02       1.614627443351e+04 
       4.206811814335e-02       1.603601332432e+04 
       4.239708646778e-02       1.592487947590e+04 
       4.273822999666e-02       1.581277201911e+04 
       4.309264595494e-02       1.569961817183e+04 
       4.346157532457e-02       1.558530705829e+04 
       4.384642757673e-02       1.546965509162e+04 
       4.424881061190e-02       1.535252006041e+04 
       4.467056717555e-02       1.523372607784e+04 
       4.511381935167e-02       1.511305048569e+04 
       4.558102315543e-02       1.499018383486e+04 
       4.607503576148e-02       1.486491443015e+04 
       4.659919851862e-02       1.473682514662e+04 
       4.715743958996e-02       1.460544938160e+04 
