# Matter power spectrum P(k) at redshift z=0
# for k=8.06198e-06 to 23.1673 h/Mpc,
# number of wavenumbers equal to 861
#    1:k (h/Mpc)              2:P (Mpc/h)^3        
       8.061980080967e-06       1.011193227600e+02 
       1.799630943511e-05       2.193117953008e+02 
       2.795144444371e-05       3.352848921743e+02 
       3.794330216898e-05       4.501624406269e+02 
       4.798795688201e-05       5.645318729670e+02 
       5.810172544538e-05       6.788000620660e+02 
       6.830125434979e-05       7.932917951127e+02 
       7.860360911496e-05       9.082890056460e+02 
       8.902636677084e-05       1.024049819614e+03 
       9.958771214245e-05       1.140819320616e+03 
       1.103065386704e-04       1.258836230919e+03 
       1.212025545063e-04       1.378337503643e+03 
       1.322963946267e-04       1.499561709183e+03 
       1.436097397060e-04       1.622751780737e+03 
       1.551654424775e-04       1.748157244600e+03 
       1.669876622809e-04       1.876036303135e+03 
       1.791020084481e-04       2.006657674136e+03 
       1.915356930940e-04       2.140302404069e+03 
       2.043176937639e-04       2.277265594816e+03 
       2.174789262103e-04       2.417858126961e+03 
       2.310524273322e-04       2.562408356664e+03 
       2.450735479811e-04       2.711263827403e+03 
       2.595801548955e-04       2.864792942213e+03 
       2.746128404513e-04       3.023386618959e+03 
       2.902151381750e-04       3.187459892442e+03 
       3.064337410232e-04       3.357453398253e+03 
       3.233187182630e-04       3.533834735557e+03 
       3.409237253478e-04       3.717099587363e+03 
       3.593061994556e-04       3.907772550444e+03 
       3.785275313216e-04       4.106407537309e+03 
       3.986532016651e-04       4.313587677425e+03 
       4.197528679206e-04       4.529924466439e+03 
       4.419003842333e-04       4.756056089435e+03 
       4.651737349255e-04       4.992644669910e+03 
       4.896548591380e-04       5.240372257748e+03 
       5.154293424640e-04       5.499935265877e+03 
       5.425859505803e-04       5.772037271084e+03 
       5.712159807542e-04       6.057379871626e+03 
       6.014124102975e-04       6.356651592969e+03 
       6.332688272377e-04       6.670514606537e+03 
       6.668781382122e-04       6.999589626067e+03 
       7.023310621381e-04       7.344438878779e+03 
       7.397144353408e-04       7.705548039457e+03 
       7.791093736539e-04       8.083307087720e+03 
       8.205893578336e-04       8.477991748558e+03 
       8.642183279931e-04       8.889745890619e+03 
       9.100488876135e-04       9.318566642854e+03 
       9.581207249038e-04       9.764292690183e+03 
       1.008459356273e-03       1.022659717839e+04 
       1.061075282125e-03       1.070498614084e+04 
       1.072292226224e-03       1.080633564721e+04 
       1.115963619604e-03       1.119880234951e+04 
       1.173104242760e-03       1.170723503645e+04 
       1.232462422144e-03       1.222933434667e+04 
       1.293989918186e-03       1.276403033313e+04 
       1.357626450844e-03       1.331015508137e+04 
       1.423301445879e-03       1.386646668936e+04 
       1.490935947676e-03       1.443167372960e+04 
       1.560444589730e-03       1.500446017436e+04 
       1.631737524957e-03       1.558350733710e+04 
       1.704722235902e-03       1.616751567353e+04 
       1.779305166283e-03       1.675522012515e+04 
       1.855393137210e-03       1.734540609625e+04 
       1.932894531257e-03       1.793691772299e+04 
       2.011720244074e-03       1.852866756555e+04 
       2.091784415607e-03       1.911963985284e+04 
       2.173004961316e-03       1.970889378262e+04 
       2.255303928519e-03       2.029556421512e+04 
       2.338607704804e-03       2.087885982602e+04 
       2.422847105149e-03       2.145806253752e+04 
       2.507957362592e-03       2.203252315979e+04 
       2.593878044691e-03       2.260166010251e+04 
       2.680552914988e-03       2.316495304214e+04 
       2.767929755618e-03       2.372194023642e+04 
       2.855960164255e-03       2.427221586723e+04 
       2.944599335947e-03       2.481542275524e+04 
       3.033805838064e-03       2.535125078993e+04 
       3.123541384599e-03       2.587943123501e+04 
       3.213770614470e-03       2.639973602416e+04 
       3.304460877095e-03       2.691197031262e+04 
       3.395582027508e-03       2.741597000839e+04 
       3.487106232435e-03       2.791160250590e+04 
       3.579007788121e-03       2.839875999385e+04 
       3.671262950231e-03       2.887735058187e+04 
       3.763849775804e-03       2.934731915391e+04 
       3.856747976971e-03       2.980861667609e+04 
       3.949938785993e-03       3.026121373095e+04 
       4.043404831068e-03       3.070509202664e+04 
       4.137130022261e-03       3.114025221639e+04 
       4.231099446911e-03       3.156670718940e+04 
       4.325299273839e-03       3.198447940586e+04 
       4.419716665697e-03       3.239360128481e+04 
       4.514339698823e-03       3.279411272723e+04 
       4.609157289984e-03       3.318605993028e+04 
       4.704159129438e-03       3.356949782506e+04 
       4.799335619774e-03       3.394449076943e+04 
       4.894677820024e-03       3.431109781193e+04 
       4.990177394600e-03       3.466939572073e+04 
       5.085826566600e-03       3.501945247425e+04 
       5.181618075130e-03       3.536134919188e+04 
       5.277545136245e-03       3.569516548352e+04 
       5.373601407215e-03       3.602097702545e+04 
       5.469780953795e-03       3.633887751828e+04 
       5.566078220244e-03       3.664894926084e+04 
       5.662488001836e-03       3.695127835844e+04 
       5.759005419646e-03       3.724595336007e+04 
       5.855625897403e-03       3.753306720280e+04 
       5.952345140231e-03       3.781270686580e+04 
       6.049159115110e-03       3.808497020548e+04 
       6.146064032898e-03       3.834993927907e+04 
       6.243056331793e-03       3.860771626509e+04 
       6.340132662092e-03       3.885838268067e+04 
       6.437289872143e-03       3.910203873164e+04 
       6.534524995394e-03       3.933877514706e+04 
       6.631835238435e-03       3.956868252209e+04 
       6.729217969946e-03       3.979184908602e+04 
       6.826670710493e-03       4.000836746020e+04 
       6.924191123085e-03       4.021832242707e+04 
       7.021777004428e-03       4.042181276391e+04 
       7.119426276831e-03       4.061891834329e+04 
       7.217136980705e-03       4.080972785214e+04 
       7.314907267602e-03       4.099433199160e+04 
       7.412735393758e-03       4.117281545397e+04 
       7.510619714095e-03       4.134526937122e+04 
       7.608558676651e-03       4.151176808587e+04 
       7.706550817403e-03       4.167238418565e+04 
       7.804594755442e-03       4.182725184239e+04 
       7.902689188495e-03       4.197640299367e+04 
       8.000832888749e-03       4.211995162247e+04 
       8.099024698957e-03       4.225794698466e+04 
       8.197263528816e-03       4.239049264272e+04 
       8.295548351580e-03       4.251765560949e+04 
       8.393878200914e-03       4.263950975741e+04 
       8.492252167940e-03       4.275615622811e+04 
       8.590669398492e-03       4.286765038553e+04 
       8.689129090551e-03       4.297406169586e+04 
       8.787630491838e-03       4.307548254913e+04 
       8.886172897582e-03       4.317196412069e+04 
       8.984755648411e-03       4.326360959580e+04 
       9.083378128405e-03       4.335047484236e+04 
       9.182039763251e-03       4.343261745790e+04 
       9.280740018539e-03       4.351014260622e+04 
       9.379478398147e-03       4.358309226109e+04 
       9.478254442751e-03       4.365154384495e+04 
       9.577067728413e-03       4.371555896155e+04 
       9.675917865273e-03       4.377521056652e+04 
       9.774804496316e-03       4.383055186809e+04 
       9.873727296229e-03       4.388166882149e+04 
       9.972685970321e-03       4.392860060289e+04 
       1.007168025352e-02       4.397143265173e+04 
       1.017070990945e-02       4.401022812909e+04 
       1.026977472953e-02       4.404502434663e+04 
       1.036887453217e-02       4.407589388798e+04 
       1.046800916202e-02       4.410291820123e+04 
       1.056717848923e-02       4.412613536243e+04 
       1.066638240882e-02       4.414560593826e+04 
       1.072292226224e-02       4.415506336655e+04 
       1.076562084005e-02       4.416140742709e+04 
       1.086489372586e-02       4.417356670025e+04 
       1.096420103233e-02       4.418216655166e+04 
       1.106354274818e-02       4.418725204686e+04 
       1.116291888435e-02       4.418888452725e+04 
       1.126232947356e-02       4.418711389256e+04 
       1.136177456994e-02       4.418199245086e+04 
       1.146125424867e-02       4.417358598083e+04 
       1.156076860566e-02       4.416193715581e+04 
       1.166031775727e-02       4.414708713114e+04 
       1.175990184005e-02       4.412912830139e+04 
       1.185952101049e-02       4.410806611907e+04 
       1.195917544482e-02       4.408397715099e+04 
       1.205886533883e-02       4.405689459331e+04 
       1.215859090771e-02       4.402691239125e+04 
       1.225835238590e-02       4.399401778642e+04 
       1.235815002698e-02       4.395829931449e+04 
       1.245798410360e-02       4.391978225907e+04 
       1.255785490737e-02       4.387854029934e+04 
       1.265776274881e-02       4.383459996029e+04 
       1.275770795736e-02       4.378801451629e+04 
       1.285769088132e-02       4.373885861698e+04 
       1.295771188787e-02       4.368711195656e+04 
       1.305777136308e-02       4.363286157938e+04 
       1.315786971198e-02       4.357614321133e+04 
       1.325800735857e-02       4.351700820333e+04 
       1.335818474595e-02       4.345551908352e+04 
       1.345840233635e-02       4.339168460281e+04 
       1.355866061129e-02       4.332552147661e+04 
       1.365896007164e-02       4.325715611998e+04 
       1.375930123784e-02       4.318656131814e+04 
       1.385968464997e-02       4.311380286368e+04 
       1.396011086798e-02       4.303892165515e+04 
       1.406058047183e-02       4.296196007862e+04 
       1.416109406174e-02       4.288299316079e+04 
       1.426165225834e-02       4.280193370846e+04 
       1.436225570296e-02       4.271896538876e+04 
       1.446290505785e-02       4.263405942384e+04 
       1.456360100643e-02       4.254727638305e+04 
       1.466434425358e-02       4.245864190371e+04 
       1.476513552594e-02       4.236814920489e+04 
       1.486597557218e-02       4.227588355070e+04 
       1.496686516337e-02       4.218191451655e+04 
       1.506780509328e-02       4.208622196371e+04 
       1.516879617876e-02       4.198883058120e+04 
       1.526983926007e-02       4.188984919349e+04 
       1.537093520132e-02       4.178924079556e+04 
       1.547208489083e-02       4.168708400030e+04 
       1.557328924155e-02       4.158344469634e+04 
       1.567454919152e-02       4.147824162068e+04 
       1.577586570431e-02       4.137159858773e+04 
       1.587723976946e-02       4.126351603030e+04 
       1.597867240303e-02       4.115406908062e+04 
       1.608016464804e-02       4.104323523368e+04 
       1.618171757502e-02       4.093105472741e+04 
       1.628333228258e-02       4.081748647599e+04 
       1.638500989792e-02       4.070281667001e+04 
       1.648675157744e-02       4.058687675042e+04 
       1.658855850735e-02       4.046961737421e+04 
       1.669043190427e-02       4.035130149290e+04 
       1.679237301587e-02       4.023176392142e+04 
       1.689438312157e-02       4.011118350008e+04 
       1.699646353319e-02       3.998941199459e+04 
       1.709861559566e-02       3.986665103887e+04 
       1.720084068780e-02       3.974290099635e+04 
       1.730314022300e-02       3.961798806148e+04 
       1.740551565008e-02       3.949208909378e+04 
       1.750796845405e-02       3.936542733872e+04 
       1.761050015697e-02       3.923781390512e+04 
       1.771311231877e-02       3.910917378212e+04 
       1.781580653820e-02       3.897973354048e+04 
       1.791858445370e-02       3.884947242906e+04 
       1.802144774437e-02       3.871833833730e+04 
       1.812439813096e-02       3.858649010557e+04 
       1.822743737683e-02       3.845386527634e+04 
       1.833056728906e-02       3.832046559626e+04 
       1.843378971949e-02       3.818633519395e+04 
       1.853710656583e-02       3.805150287174e+04 
       1.864051977284e-02       3.791612558206e+04 
       1.874403133349e-02       3.777993497657e+04 
       1.884764329017e-02       3.764314948941e+04 
       1.895135773601e-02       3.750577512031e+04 
       1.905517681614e-02       3.736780659102e+04 
       1.915910272908e-02       3.722942091221e+04 
       1.926313772810e-02       3.709046029707e+04 
       1.936728412269e-02       3.695084711437e+04 
       1.947154428003e-02       3.681094815832e+04 
       1.957592062656e-02       3.667045100672e+04 
       1.968041564955e-02       3.652950342886e+04 
       1.978503189876e-02       3.638814212103e+04 
       1.988977198815e-02       3.624639013758e+04 
       1.999463859763e-02       3.610426489787e+04 
       2.009963447489e-02       3.596173996650e+04 
       2.020476243729e-02       3.581885540116e+04 
       2.031002537382e-02       3.567561176614e+04 
       2.041542624710e-02       3.553212875873e+04 
       2.052096809551e-02       3.538833345144e+04 
       2.062665403532e-02       3.524426725033e+04 
       2.073248726296e-02       3.509997829908e+04 
       2.083847105734e-02       3.495528042234e+04 
       2.094460878224e-02       3.481053189470e+04 
       2.105090388885e-02       3.466548729973e+04 
       2.115735991832e-02       3.452031211681e+04 
       2.126398050448e-02       3.437496262361e+04 
       2.137076937659e-02       3.422944842369e+04 
       2.147773036226e-02       3.408368314505e+04 
       2.158486739040e-02       3.393788769532e+04 
       2.169218449441e-02       3.379194850631e+04 
       2.179968581534e-02       3.364600653275e+04 
       2.190737560527e-02       3.349991438629e+04 
       2.201525823079e-02       3.335371315124e+04 
       2.212333817665e-02       3.320749001897e+04 
       2.223162004947e-02       3.306119671734e+04 
       2.234010858168e-02       3.291491825371e+04 
       2.244880863562e-02       3.276860183089e+04 
       2.255772520772e-02       3.262231602077e+04 
       2.266686343292e-02       3.247610981011e+04 
       2.277622858926e-02       3.232977302915e+04 
       2.288582610268e-02       3.218353423358e+04 
       2.299566155193e-02       3.203732219379e+04 
       2.310574067381e-02       3.189112901828e+04 
       2.321606936853e-02       3.174507559262e+04 
       2.332665370537e-02       3.159914737511e+04 
       2.343749992852e-02       3.145320807552e+04 
       2.354861446322e-02       3.130739945206e+04 
       2.366000392217e-02       3.116177600365e+04 
       2.377167511217e-02       3.101617313400e+04 
       2.388363504113e-02       3.087074176835e+04 
       2.399589092532e-02       3.072547140945e+04 
       2.410845019703e-02       3.058026882001e+04 
       2.422132051247e-02       3.043528739882e+04 
       2.433450976018e-02       3.029053099905e+04 
       2.444802606966e-02       3.014580798596e+04 
       2.456187782060e-02       3.000130435437e+04 
       2.467607365234e-02       2.985712325214e+04 
       2.479062247396e-02       2.971293716091e+04 
       2.490553347476e-02       2.956915165177e+04 
       2.502081613526e-02       2.942550209849e+04 
       2.513648023880e-02       2.928200328901e+04 
       2.525253588363e-02       2.913862238587e+04 
       2.536899349570e-02       2.899577632032e+04 
       2.548586384198e-02       2.885295780172e+04 
       2.560315804463e-02       2.871051014191e+04 
       2.572088759575e-02       2.856813994843e+04 
       2.583906437297e-02       2.842619490056e+04 
       2.595770065585e-02       2.828437382236e+04 
       2.607680914321e-02       2.814290121626e+04 
       2.619640297129e-02       2.800159218854e+04 
       2.631649573298e-02       2.786066947930e+04 
       2.643710149813e-02       2.771995011647e+04 
       2.655823483491e-02       2.757946594638e+04 
       2.667991083242e-02       2.743933778757e+04 
       2.680214512462e-02       2.729942781062e+04 
       2.692495391562e-02       2.715985316580e+04 
       2.704835400638e-02       2.702053913854e+04 
       2.717236282310e-02       2.688151857327e+04 
       2.729699844722e-02       2.674277743171e+04 
       2.742227964727e-02       2.660432915104e+04 
       2.754822591265e-02       2.646620676440e+04 
       2.767485748952e-02       2.632836814343e+04 
       2.780219541892e-02       2.619075059812e+04 
       2.793026157731e-02       2.605339378075e+04 
       2.805907871972e-02       2.591645659701e+04 
       2.818867052569e-02       2.577982865821e+04 
       2.831906164825e-02       2.564341860302e+04 
       2.845027776616e-02       2.550728410343e+04 
       2.858234563970e-02       2.537145872249e+04 
       2.871529317019e-02       2.523590903252e+04 
       2.884914946378e-02       2.510066673545e+04 
       2.898394489960e-02       2.496571945531e+04 
       2.911971120283e-02       2.483099854391e+04 
       2.925648152304e-02       2.469660681780e+04 
       2.939429051823e-02       2.456243994064e+04 
       2.953317444520e-02       2.442855294690e+04 
       2.967317125661e-02       2.429497190429e+04 
       2.981432070560e-02       2.416157074369e+04 
       2.995666445840e-02       2.402848605707e+04 
       3.010024621591e-02       2.389565661797e+04 
       3.024511184495e-02       2.376302330720e+04 
       3.039130952018e-02       2.363063621322e+04 
       3.053888987772e-02       2.349849405313e+04 
       3.068790618169e-02       2.336660144191e+04 
       3.083841450485e-02       2.323493287228e+04 
       3.099047392491e-02       2.310340023673e+04 
       3.114414673816e-02       2.297202049293e+04 
       3.129949869211e-02       2.284094403746e+04 
       3.145659923936e-02       2.270994823842e+04 
       3.161552181502e-02       2.257917685488e+04 
       3.177634414011e-02       2.244855861446e+04 
       3.193914855422e-02       2.231811133688e+04 
       3.210402238057e-02       2.218775089321e+04 
       3.227105832737e-02       2.205742272545e+04 
       3.244035492989e-02       2.192728265241e+04 
       3.261201703814e-02       2.179717323227e+04 
       3.278615635594e-02       2.166719385080e+04 
       3.296289203783e-02       2.153723583056e+04 
       3.314235135138e-02       2.140728016136e+04 
       3.332467041354e-02       2.127746375289e+04 
       3.350999501102e-02       2.114737852712e+04 
       3.369848151631e-02       2.101746843214e+04 
       3.389029791269e-02       2.088738381712e+04 
       3.408562494410e-02       2.075727497532e+04 
       3.428465740802e-02       2.062706553555e+04 
       3.448760561293e-02       2.049667131917e+04 
       3.469469702561e-02       2.036610664188e+04 
       3.490617813809e-02       2.023535162280e+04 
       3.512231658961e-02       2.010432760904e+04 
       3.534340358547e-02       1.997302941068e+04 
       3.556975666289e-02       1.984138178139e+04 
       3.580172286384e-02       1.970939642654e+04 
       3.603968238673e-02       1.957690937262e+04 
       3.628405280403e-02       1.944401169117e+04 
       3.653529395100e-02       1.931053266607e+04 
       3.679391361367e-02       1.917640648739e+04 
       3.706047417268e-02       1.904166292936e+04 
       3.733560039505e-02       1.890615097041e+04 
       3.761998861062e-02       1.876971818478e+04 
       3.791441756639e-02       1.863239096183e+04 
       3.821976132312e-02       1.849398347133e+04 
       3.853700464908e-02       1.835439212753e+04 
       3.886726148110e-02       1.821338701943e+04 
       3.921179716975e-02       1.807098915293e+04 
       3.957205541263e-02       1.792679415154e+04 
       3.994969101772e-02       1.778068661057e+04 
