# Matter power spectrum P(k) at redshift z=0
# for k=9.01777e-06 to 20.5825 h/Mpc,
# number of wavenumbers equal to 855
#    1:k (h/Mpc)              2:P (Mpc/h)^3        
       9.017768204720e-06       7.368668906329e+01 
       2.013117065551e-05       1.598249961134e+02 
       3.127368623152e-05       2.443900573144e+02 
       4.246761821429e-05       3.282332806137e+02 
       5.373554514272e-05       4.118153170678e+02 
       6.510047082172e-05       4.954659818953e+02 
       7.658597794245e-05       5.794564469124e+02 
       8.821638686582e-05       6.640282286237e+02 
       1.000169211334e-04       7.494075649115e+02 
       1.120138812866e-04       8.358136599737e+02 
       1.242348285901e-04       9.234640425441e+02 
       1.367087802636e-04       1.012578397612e+03 
       1.494664178164e-04       1.103381576340e+03 
       1.625403100413e-04       1.196106126564e+03 
       1.759651521417e-04       1.290994548736e+03 
       1.897780223194e-04       1.388301435434e+03 
       2.040186569110e-04       1.488295492674e+03 
       2.187297447984e-04       1.591261575940e+03 
       2.339572412864e-04       1.697502695387e+03 
       2.497507008914e-04       1.807342030261e+03 
       2.661636274439e-04       1.921124939040e+03 
       2.832538385149e-04       2.039220946639e+03 
       3.010838393218e-04       2.162025658011e+03 
       3.197211988802e-04       2.289962555443e+03 
       3.392389181229e-04       2.423484587960e+03 
       3.597157759348e-04       2.563075446301e+03 
       3.812366344790e-04       2.709250397591e+03 
       4.038926798210e-04       2.862556491363e+03 
       4.277815677867e-04       3.023571937412e+03 
       4.530074384697e-04       3.192904412357e+03 
       4.796807563165e-04       3.371188015824e+03 
       5.079179270207e-04       3.559078551617e+03 
       5.378406386927e-04       3.757246887417e+03 
       5.695748744280e-04       3.966369997802e+03 
       6.032495483134e-04       4.187119585214e+03 
       6.389947290495e-04       4.420148020836e+03 
       6.769394364803e-04       4.666071812821e+03 
       7.172090273991e-04       4.925452652167e+03 
       7.599222275715e-04       5.198776811669e+03 
       8.051879143593e-04       5.486433644825e+03 
       8.531018034307e-04       5.788694364915e+03 
       9.037432361260e-04       6.105692595194e+03 
       9.571722920002e-04       6.437408335947e+03 
       1.013427455223e-03       6.783656818599e+03 
       1.072524038191e-03       7.144083602721e+03 
       1.134453510456e-03       7.518166586794e+03 
       1.199183801970e-03       7.905225786490e+03 
       1.237436309153e-03       8.132072995168e+03 
       1.266660558409e-03       8.304439159353e+03 
       1.336809238052e-03       8.714864316009e+03 
       1.409537868692e-03       9.135464073186e+03 
       1.484740239600e-03       9.565133525092e+03 
       1.562299291522e-03       1.000272752373e+04 
       1.642090484503e-03       1.044708611215e+04 
       1.723984961446e-03       1.089705742697e+04 
       1.807852375162e-03       1.135151658270e+04 
       1.893563298875e-03       1.180938079906e+04 
       1.980991187410e-03       1.226962083167e+04 
       2.070013894393e-03       1.273126816855e+04 
       2.160514777863e-03       1.319342053663e+04 
       2.252383443363e-03       1.365524482105e+04 
       2.345516181282e-03       1.411597879125e+04 
       2.439816156371e-03       1.457493065665e+04 
       2.535193403933e-03       1.503147738017e+04 
       2.631564681181e-03       1.548506189469e+04 
       2.728853215055e-03       1.593518825856e+04 
       2.826988380429e-03       1.638141592256e+04 
       2.925905335651e-03       1.682335582237e+04 
       3.025544636276e-03       1.726066201843e+04 
       3.125851842553e-03       1.769303218659e+04 
       3.226777131995e-03       1.812020023706e+04 
       3.328274924875e-03       1.854193584199e+04 
       3.430303527867e-03       1.895804349729e+04 
       3.532824798954e-03       1.936835612702e+04 
       3.635803835260e-03       1.977273731851e+04 
       3.739208684334e-03       2.017107177020e+04 
       3.843010078631e-03       2.056326798213e+04 
       3.947181192420e-03       2.094925184591e+04 
       4.051697420008e-03       2.132896051170e+04 
       4.156536173955e-03       2.170234532332e+04 
       4.261676701857e-03       2.206937799596e+04 
       4.367099920266e-03       2.243003061623e+04 
       4.472788264292e-03       2.278429439409e+04 
       4.578725551528e-03       2.313216884020e+04 
       4.684896858992e-03       2.347366205373e+04 
       4.791288411857e-03       2.380879363566e+04 
       4.897887482858e-03       2.413758802587e+04 
       5.004682301321e-03       2.446006770129e+04 
       5.111661970888e-03       2.477626732849e+04 
       5.218816395059e-03       2.508621997921e+04 
       5.326136209784e-03       2.538996255018e+04 
       5.433612722403e-03       2.568754567570e+04 
       5.541237856288e-03       2.597901468774e+04 
       5.649004100628e-03       2.626441854184e+04 
       5.756904464843e-03       2.654381354247e+04 
       5.864932437163e-03       2.681725600079e+04 
       5.973081946959e-03       2.708480110284e+04 
       6.081347330465e-03       2.734650010309e+04 
       6.189723299550e-03       2.760241835731e+04 
       6.298204913243e-03       2.785260104099e+04 
       6.406787551753e-03       2.809711514254e+04 
       6.515466892733e-03       2.833603068129e+04 
       6.624238889588e-03       2.856939752450e+04 
       6.733099751614e-03       2.879728144926e+04 
       6.842045925821e-03       2.901974682418e+04 
       6.951074080257e-03       2.923685215501e+04 
       7.060181088721e-03       2.944867026549e+04 
       7.169364016712e-03       2.965524628992e+04 
       7.278620108523e-03       2.985665581765e+04 
       7.387946775368e-03       3.005294665385e+04 
       7.497341584446e-03       3.024419111369e+04 
       7.606802248869e-03       3.043044672273e+04 
       7.716326618374e-03       3.061178370437e+04 
       7.825912670749e-03       3.078825232728e+04 
       7.935558503913e-03       3.095991811876e+04 
       8.045262328602e-03       3.112684174040e+04 
       8.155022461594e-03       3.128907946287e+04 
       8.264837319447e-03       3.144667745028e+04 
       8.374705412693e-03       3.159971382505e+04 
       8.484625340461e-03       3.174823029250e+04 
       8.594595785482e-03       3.189230946304e+04 
       8.704615509463e-03       3.203198386605e+04 
       8.814683348788e-03       3.216732348005e+04 
       8.924798210516e-03       3.229837645165e+04 
       9.034959068675e-03       3.242520348648e+04 
       9.145164960802e-03       3.254785089686e+04 
       9.255414984729e-03       3.266639477901e+04 
       9.365708295591e-03       3.278085905444e+04 
       9.476044103039e-03       3.289131130607e+04 
       9.586421668641e-03       3.299779748334e+04 
       9.696840303463e-03       3.310039641747e+04 
       9.807299365809e-03       3.319912759721e+04 
       9.917798259121e-03       3.329405484671e+04 
       1.002833643001e-02       3.338522279043e+04 
       1.013891336643e-02       3.347269363959e+04 
       1.024952859596e-02       3.355650601158e+04 
       1.036018168421e-02       3.363669981065e+04 
       1.047087223335e-02       3.371334939873e+04 
       1.058159988071e-02       3.378648308506e+04 
       1.069236429745e-02       3.385615997566e+04 
       1.080316518742e-02       3.392243091477e+04 
       1.091400228596e-02       3.398532077399e+04 
       1.102487535892e-02       3.404489321810e+04 
       1.113578420160e-02       3.410118518958e+04 
       1.124672863791e-02       3.415424574613e+04 
       1.135770851948e-02       3.420411530789e+04 
       1.146872372489e-02       3.425082313317e+04 
       1.157977415889e-02       3.429445277484e+04 
       1.169085975180e-02       3.433500989595e+04 
       1.180198045879e-02       3.437256887638e+04 
       1.191313625937e-02       3.440713699252e+04 
       1.202432715680e-02       3.443877307323e+04 
       1.213555317760e-02       3.446752054606e+04 
       1.224681437110e-02       3.449341502191e+04 
       1.235811080903e-02       3.451650876160e+04 
       1.237436309153e-02       3.451963641977e+04 
       1.246944258512e-02       3.453681958496e+04 
       1.258080981472e-02       3.455441117786e+04 
       1.269221263455e-02       3.456930917590e+04 
       1.280365120235e-02       3.458155715878e+04 
       1.291512569667e-02       3.459118679728e+04 
       1.302663631659e-02       3.459825168036e+04 
       1.313818328155e-02       3.460277007253e+04 
       1.324976683118e-02       3.460479187667e+04 
       1.336138722513e-02       3.460434761252e+04 
       1.347304474295e-02       3.460147689184e+04 
       1.358473968398e-02       3.459622431054e+04 
       1.369647236726e-02       3.458860621265e+04 
       1.380824313151e-02       3.457867575717e+04 
       1.392005233503e-02       3.456644927362e+04 
       1.403190035574e-02       3.455199374304e+04 
       1.414378759114e-02       3.453531552842e+04 
       1.425571445833e-02       3.451646830052e+04 
       1.436768139409e-02       3.449546430267e+04 
       1.447968885487e-02       3.447234288868e+04 
       1.459173731692e-02       3.444715317736e+04 
       1.470382727637e-02       3.441990951418e+04 
       1.481595924932e-02       3.439066327511e+04 
       1.492813377198e-02       3.435941558185e+04 
       1.504035140080e-02       3.432624883345e+04 
       1.515261271265e-02       3.429113076019e+04 
       1.526491830498e-02       3.425415520464e+04 
       1.537726879602e-02       3.421531624686e+04 
       1.548966482496e-02       3.417465924335e+04 
       1.560210705222e-02       3.413220111345e+04 
       1.571459615965e-02       3.408800478746e+04 
       1.582713285081e-02       3.404204354598e+04 
       1.593971785121e-02       3.399438170093e+04 
       1.605235190863e-02       3.394507024578e+04 
       1.616503579341e-02       3.389410179838e+04 
       1.627777029876e-02       3.384151051671e+04 
       1.639055624109e-02       3.378734114014e+04 
       1.650339446038e-02       3.373161503493e+04 
       1.661628582054e-02       3.367434305243e+04 
       1.672923120979e-02       3.361559707197e+04 
       1.684223154105e-02       3.355534908654e+04 
       1.695528775235e-02       3.349370305013e+04 
       1.706840080732e-02       3.343057494422e+04 
       1.718157169555e-02       3.336606798673e+04 
       1.729480143313e-02       3.330022104754e+04 
       1.740809106312e-02       3.323301171515e+04 
       1.752144165602e-02       3.316449878829e+04 
       1.763485431034e-02       3.309470962001e+04 
       1.774833015309e-02       3.302363889254e+04 
       1.786187034040e-02       3.295130755622e+04 
       1.797547605804e-02       3.287780600010e+04 
       1.808914852206e-02       3.280310864895e+04 
       1.820288897940e-02       3.272724120117e+04 
       1.831669870852e-02       3.265020746201e+04 
       1.843057902006e-02       3.257209833461e+04 
       1.854453125757e-02       3.249286841567e+04 
       1.865855679814e-02       3.241260186867e+04 
       1.877265705321e-02       3.233126387133e+04 
       1.888683346926e-02       3.224894931801e+04 
       1.900108752863e-02       3.216555029660e+04 
       1.911542075032e-02       3.208123597901e+04 
       1.922983469077e-02       3.199600011412e+04 
       1.934433094480e-02       3.190979723715e+04 
       1.945891114643e-02       3.182269751116e+04 
       1.957357696982e-02       3.173467550861e+04 
       1.968833013019e-02       3.164579517679e+04 
       1.980317238481e-02       3.155606109359e+04 
       1.991810553402e-02       3.146557054492e+04 
       2.003313142220e-02       3.137422190255e+04 
       2.014825193893e-02       3.128212594944e+04 
       2.026346902000e-02       3.118921985930e+04 
       2.037878464861e-02       3.109558066049e+04 
       2.049420085653e-02       3.100122686078e+04 
       2.060971972528e-02       3.090622732740e+04 
       2.072534338742e-02       3.081046807606e+04 
       2.084107402784e-02       3.071408682989e+04 
       2.095691388505e-02       3.061701682150e+04 
       2.107286525261e-02       3.051933740525e+04 
       2.118893048051e-02       3.042110185282e+04 
       2.130511197668e-02       3.032216404298e+04 
       2.142141220844e-02       3.022270475777e+04 
       2.153783370415e-02       3.012279287308e+04 
       2.165437905476e-02       3.002224116485e+04 
       2.177105091553e-02       2.992121112304e+04 
       2.188785200770e-02       2.981963812348e+04 
       2.200478512035e-02       2.971763472268e+04 
       2.212185311220e-02       2.961506287447e+04 
       2.223905891351e-02       2.951213671422e+04 
       2.235640552811e-02       2.940869628265e+04 
       2.247389603537e-02       2.930490014364e+04 
       2.259153359238e-02       2.920065987331e+04 
       2.270932143609e-02       2.909608211943e+04 
       2.282726288560e-02       2.899114201662e+04 
       2.294536134450e-02       2.888573818881e+04 
       2.306362030328e-02       2.878001124553e+04 
       2.318204334185e-02       2.867402593871e+04 
       2.330063413216e-02       2.856768912199e+04 
       2.341939644087e-02       2.846098382903e+04 
       2.353833413217e-02       2.835411415659e+04 
       2.365745117065e-02       2.824691794247e+04 
       2.377675162432e-02       2.813945576745e+04 
       2.389623966771e-02       2.803174166791e+04 
       2.401591958514e-02       2.792382388754e+04 
       2.413579577401e-02       2.781564801946e+04 
       2.425587274834e-02       2.770728517533e+04 
       2.437615514233e-02       2.759876371141e+04 
       2.449664771415e-02       2.748990278527e+04 
       2.461735534981e-02       2.738101137717e+04 
       2.473828306724e-02       2.727199232618e+04 
       2.485943602043e-02       2.716278463718e+04 
       2.498081950390e-02       2.705336383052e+04 
       2.510243895716e-02       2.694394302813e+04 
       2.522429996947e-02       2.683427705144e+04 
       2.534640828479e-02       2.672457896616e+04 
       2.546876980687e-02       2.661479011085e+04 
       2.559139060460e-02       2.650491181402e+04 
       2.571427691755e-02       2.639497292178e+04 
       2.583743516177e-02       2.628489496280e+04 
       2.596087193583e-02       2.617477121302e+04 
       2.608459402711e-02       2.606468242482e+04 
       2.620860841833e-02       2.595454745936e+04 
       2.633292229443e-02       2.584437948939e+04 
       2.645754304970e-02       2.573418621191e+04 
       2.658247829524e-02       2.562396502727e+04 
       2.670773586674e-02       2.551375387157e+04 
       2.683332383264e-02       2.540356312088e+04 
       2.695925050260e-02       2.529333073360e+04 
       2.708552443645e-02       2.518321637406e+04 
       2.721215445346e-02       2.507297859882e+04 
       2.733914964208e-02       2.496298354299e+04 
       2.746651937014e-02       2.485287074841e+04 
       2.759427329556e-02       2.474283808808e+04 
       2.772242137749e-02       2.463290184495e+04 
       2.785097388808e-02       2.452314632362e+04 
       2.797994142477e-02       2.441326075611e+04 
       2.810933492320e-02       2.430348208103e+04 
       2.823916567079e-02       2.419387487722e+04 
       2.836944532091e-02       2.408433359140e+04 
       2.850018590792e-02       2.397486035333e+04 
       2.863139986282e-02       2.386545627984e+04 
       2.876310002983e-02       2.375612291657e+04 
       2.889529968376e-02       2.364705449588e+04 
       2.902801254839e-02       2.353800034262e+04 
       2.916125281569e-02       2.342903546247e+04 
       2.929503516625e-02       2.332021381722e+04 
       2.942937479065e-02       2.321155876362e+04 
       2.956428741218e-02       2.310302455853e+04 
       2.969978931066e-02       2.299459702336e+04 
       2.983589734776e-02       2.288627033621e+04 
       2.997262899363e-02       2.277814557438e+04 
       3.011000235518e-02       2.267009924784e+04 
       3.024803620590e-02       2.256226970612e+04 
       3.038675001755e-02       2.245453453871e+04 
       3.052616399362e-02       2.234691129233e+04 
       3.066629910495e-02       2.223949521192e+04 
       3.080717712740e-02       2.213222927028e+04 
       3.094882068192e-02       2.202509661190e+04 
       3.109125327712e-02       2.191808091813e+04 
       3.123449935452e-02       2.181124158955e+04 
       3.137858433671e-02       2.170457739754e+04 
       3.152353467864e-02       2.159803923005e+04 
       3.166937792232e-02       2.149172869759e+04 
       3.181614275507e-02       2.138551600529e+04 
       3.196385907183e-02       2.127941529716e+04 
       3.211255804162e-02       2.117353769867e+04 
       3.226227217867e-02       2.106773793690e+04 
       3.241303541855e-02       2.096217337929e+04 
       3.256488319967e-02       2.085668691614e+04 
       3.271785255073e-02       2.075137802520e+04 
       3.287198218451e-02       2.064616809460e+04 
       3.302731259871e-02       2.054113396493e+04 
       3.318388618428e-02       2.043625402966e+04 
       3.334174734211e-02       2.033147648464e+04 
       3.350094260877e-02       2.022684592531e+04 
       3.366152079208e-02       2.012231633259e+04 
       3.382353311761e-02       2.001793990716e+04 
       3.398703338700e-02       1.991370443643e+04 
       3.415207814938e-02       1.980949426824e+04 
       3.431872688710e-02       1.970545099575e+04 
       3.448704221730e-02       1.960144889684e+04 
       3.465709011093e-02       1.949765101501e+04 
       3.482894013096e-02       1.939383953013e+04 
       3.500266569195e-02       1.929012456608e+04 
       3.517834434320e-02       1.918647236299e+04 
       3.535605807812e-02       1.908298160253e+04 
       3.553589367267e-02       1.897947069853e+04 
       3.571794305632e-02       1.887593591909e+04 
       3.590230371914e-02       1.877248502054e+04 
       3.608907915936e-02       1.866906905004e+04 
       3.627837937633e-02       1.856567443165e+04 
       3.647032141422e-02       1.846226771199e+04 
       3.666502996307e-02       1.835880951104e+04 
       3.686263802426e-02       1.825533183289e+04 
       3.706328764880e-02       1.815183430671e+04 
       3.726713075816e-02       1.804821105843e+04 
       3.747433005868e-02       1.794464288668e+04 
       3.768506006250e-02       1.784080579182e+04 
       3.789950822990e-02       1.773694809315e+04 
       3.811787625070e-02       1.763292360029e+04 
       3.834038148490e-02       1.752873583657e+04 
       3.856725858652e-02       1.742436861628e+04 
       3.879876133894e-02       1.731975888286e+04 
       3.903516473463e-02       1.721492445573e+04 
       3.927676733878e-02       1.710986033052e+04 
       3.952389398344e-02       1.700443634634e+04 
       3.977689884778e-02       1.689864912774e+04 
       4.003616899120e-02       1.679245395611e+04 
       4.030212841933e-02       1.668590115691e+04 
       4.057524277953e-02       1.657890996534e+04 
       4.085602480297e-02       1.647137462411e+04 
       4.114504063566e-02       1.636321933190e+04 
       4.144291723242e-02       1.625443269860e+04 
       4.175035102728e-02       1.614496833849e+04 
       4.206811814335e-02       1.603471614687e+04 
       4.239708646778e-02       1.592359128661e+04 
       4.273822999666e-02       1.581149289674e+04 
       4.309264595494e-02       1.569834820104e+04 
       4.346157532457e-02       1.558404633268e+04 
       4.384642757673e-02       1.546840371964e+04 
       4.424881061190e-02       1.535127816204e+04 
       4.467056717555e-02       1.523249378726e+04 
       4.511381935167e-02       1.511182795511e+04 
       4.558102315543e-02       1.498897124151e+04 
       4.607503576148e-02       1.486371196837e+04 
       4.659919851862e-02       1.473563304450e+04 
       4.715743958996e-02       1.460426790498e+04 
