# Matter power spectrum P(k) at redshift z=0
# for k=1.02735e-05 to 23.4548 h/Mpc,
# number of wavenumbers equal to 850
#    1:k (h/Mpc)              2:P (Mpc/h)^3        
       1.027347021217e-05       5.098326572255e+01 
       2.293667112533e-05       1.105924516871e+02 
       3.564291528140e-05       1.691583661002e+02 
       4.842524124687e-05       2.273034562873e+02 
       6.131721588657e-05       2.853802228216e+02 
       7.435322367328e-05       3.436516836103e+02 
       8.756876495136e-05       4.023419172055e+02 
       1.010007669986e-04       4.616566906501e+02 
       1.146879117604e-04       5.217939856281e+02 
       1.286709841634e-04       5.829503297877e+02 
       1.429932449243e-04       6.453251505258e+02 
       1.577008317338e-04       7.091241290011e+02 
       1.728431925524e-04       7.745620384853e+02 
       1.884735544710e-04       8.418653091443e+02 
       2.046494310612e-04       9.112744776638e+02 
       2.214331702803e-04       9.830465806621e+02 
       2.388925436593e-04       1.057457569994e+03 
       2.571013755133e-04       1.134804718389e+03 
       2.761402080523e-04       1.215409069521e+03 
       2.960969942675e-04       1.299617818923e+03 
       3.170678050143e-04       1.387806644214e+03 
       3.391575294584e-04       1.480381827079e+03 
       3.624805386718e-04       1.577782051405e+03 
       3.871612703982e-04       1.680479701767e+03 
       4.133346787621e-04       1.788981375403e+03 
       4.411464762738e-04       1.903827364379e+03 
       4.707530777243e-04       2.025589670701e+03 
       5.023211382382e-04       2.154868173128e+03 
       5.360265637989e-04       2.292284468427e+03 
       5.720528663629e-04       2.438472927988e+03 
       6.105887430447e-04       2.594068594461e+03 
       6.518247864876e-04       2.759691648757e+03 
       6.959492877995e-04       2.935928521408e+03 
       7.431431780706e-04       3.123309998762e+03 
       7.935742677405e-04       3.322287237367e+03 
       8.473910745535e-04       3.533207054674e+03 
       9.047166600686e-04       3.756288396922e+03 
       9.656429926378e-04       3.991602165661e+03 
       1.030226389989e-03       4.239056683269e+03 
       1.098484543128e-03       4.498390715956e+03 
       1.170395479537e-03       4.769175318205e+03 
       1.245898606508e-03       5.050824649590e+03 
       1.324897726323e-03       5.342615084211e+03 
       1.407265685947e-03       5.643710466500e+03 
       1.458125550442e-03       5.828037067351e+03 
       1.492850161401e-03       5.953191234713e+03 
       1.581480007379e-03       6.270084446940e+03 
       1.672971626480e-03       6.593392586837e+03 
       1.767134908327e-03       6.922119120047e+03 
       1.863778424053e-03       7.255290284722e+03 
       1.962713703573e-03       7.591971926801e+03 
       2.063758547357e-03       7.931281987417e+03 
       2.166739417868e-03       8.272398971644e+03 
       2.271493015384e-03       8.614566897678e+03 
       2.377867172534e-03       8.957095767585e+03 
       2.485721208567e-03       9.299362103879e+03 
       2.594925876004e-03       9.640805643317e+03 
       2.705363015595e-03       9.980926262165e+03 
       2.816925015398e-03       1.031927986359e+04 
       2.929514149712e-03       1.065547450866e+04 
       3.043041855314e-03       1.098916460229e+04 
       3.157427986992e-03       1.132004764722e+04 
       3.272600081755e-03       1.164785932119e+04 
       3.388492651335e-03       1.197237012711e+04 
       3.505046515179e-03       1.229338148408e+04 
       3.622208180690e-03       1.261072137286e+04 
       3.739929273651e-03       1.292424482464e+04 
       3.858166019066e-03       1.323382569059e+04 
       3.976878770958e-03       1.353936124667e+04 
       4.096031588510e-03       1.384076161538e+04 
       4.215591855380e-03       1.413795380942e+04 
       4.335529938678e-03       1.443088693541e+04 
       4.455818884074e-03       1.471950612603e+04 
       4.576434143550e-03       1.500378208013e+04 
       4.697353332514e-03       1.528368478024e+04 
       4.818556013182e-03       1.555919747848e+04 
       4.940023501429e-03       1.583031101736e+04 
       5.061738694520e-03       1.609702004125e+04 
       5.183685917414e-03       1.635932732458e+04 
       5.305850785555e-03       1.661723641357e+04 
       5.428220082303e-03       1.687075316675e+04 
       5.550781649350e-03       1.711991159953e+04 
       5.673524288655e-03       1.736471449868e+04 
       5.796437674597e-03       1.760518237688e+04 
       5.919512275208e-03       1.784134901336e+04 
       6.042739281462e-03       1.807323082787e+04 
       6.166110543727e-03       1.830086843656e+04 
       6.289618514588e-03       1.852428138501e+04 
       6.413256197345e-03       1.874350440836e+04 
       6.537017099560e-03       1.895857532000e+04 
       6.660895191115e-03       1.916952852341e+04 
       6.784884866300e-03       1.937639323854e+04 
       6.908980909492e-03       1.957920941629e+04 
       7.033178464057e-03       1.977801691239e+04 
       7.157473004142e-03       1.997284058561e+04 
       7.281860309047e-03       2.016373465637e+04 
       7.406336439925e-03       2.035073181902e+04 
       7.530897718571e-03       2.053385960745e+04 
       7.655540708090e-03       2.071317067808e+04 
       7.780262195262e-03       2.088870142926e+04 
       7.905059174430e-03       2.106048911912e+04 
       8.029928832773e-03       2.122857005500e+04 
       8.154868536831e-03       2.139298264634e+04 
       8.279875820148e-03       2.155377504353e+04 
       8.404948371955e-03       2.171097038206e+04 
       8.530084026770e-03       2.186461398557e+04 
       8.655280754846e-03       2.201475556916e+04 
       8.780536653391e-03       2.216142522131e+04 
       8.905849938479e-03       2.230466056195e+04 
       9.031218937608e-03       2.244449924569e+04 
       9.156642082825e-03       2.258097783198e+04 
       9.282117904397e-03       2.271413821068e+04 
       9.407645024957e-03       2.284401378422e+04 
       9.533222154095e-03       2.297064214819e+04 
       9.658848083362e-03       2.309406085924e+04 
       9.784521681637e-03       2.321430172113e+04 
       9.910241890845e-03       2.333140281471e+04 
       1.003600772199e-02       2.344540489387e+04 
       1.016181825146e-02       2.355634111757e+04 
       1.028767261763e-02       2.366424475770e+04 
       1.041357001768e-02       2.376915486568e+04 
       1.053950970467e-02       2.387109622423e+04 
       1.066549098476e-02       2.397011225278e+04 
       1.079151321474e-02       2.406623658404e+04 
       1.091757579960e-02       2.415950092121e+04 
       1.104367819038e-02       2.424994075739e+04 
       1.116981988209e-02       2.433757536487e+04 
       1.129600041186e-02       2.442246260280e+04 
       1.142221935712e-02       2.450460685132e+04 
       1.154847633398e-02       2.458405860038e+04 
       1.167477099569e-02       2.466084991977e+04 
       1.180110303122e-02       2.473499995946e+04 
       1.192747216393e-02       2.480654747658e+04 
       1.205387815036e-02       2.487553066357e+04 
       1.218032077904e-02       2.494196587103e+04 
       1.230679986945e-02       2.500588684941e+04 
       1.243331527104e-02       2.506733404543e+04 
       1.255986686228e-02       2.512633813508e+04 
       1.268645454984e-02       2.518291336293e+04 
       1.281307826778e-02       2.523710347712e+04 
       1.293973797681e-02       2.528893518368e+04 
       1.306643366364e-02       2.533842752692e+04 
       1.319316534034e-02       2.538561127232e+04 
       1.331993304376e-02       2.543052054668e+04 
       1.344673683500e-02       2.547317961382e+04 
       1.357357679894e-02       2.551361921896e+04 
       1.370045304378e-02       2.555186324714e+04 
       1.382736570064e-02       2.558794583826e+04 
       1.395431492319e-02       2.562188548880e+04 
       1.408130088732e-02       2.565370980402e+04 
       1.420832379085e-02       2.568345522119e+04 
       1.433538385324e-02       2.571114741058e+04 
       1.446248131537e-02       2.573679783700e+04 
       1.458125550442e-02       2.575894849775e+04 
       1.458961643934e-02       2.576044556614e+04 
       1.471678950827e-02       2.578210867554e+04 
       1.484400082616e-02       2.580181632489e+04 
       1.497125071776e-02       2.581959601765e+04 
       1.509853952848e-02       2.583547240519e+04 
       1.522586762428e-02       2.584946667972e+04 
       1.535323539167e-02       2.586160469485e+04 
       1.548064323762e-02       2.587192301342e+04 
       1.560809158958e-02       2.588042197962e+04 
       1.573558089547e-02       2.588714890698e+04 
       1.586311162375e-02       2.589211556242e+04 
       1.599068426341e-02       2.589534552717e+04 
       1.611829932409e-02       2.589686894379e+04 
       1.624595733615e-02       2.589669270264e+04 
       1.637365885078e-02       2.589487480286e+04 
       1.650140444009e-02       2.589139936236e+04 
       1.662919469732e-02       2.588631650971e+04 
       1.675703023694e-02       2.587963602535e+04 
       1.688491169485e-02       2.587140628366e+04 
       1.701283972858e-02       2.586158473997e+04 
       1.714081501749e-02       2.585024968493e+04 
       1.726883826299e-02       2.583742348610e+04 
       1.739691018882e-02       2.582310497330e+04 
       1.752503154126e-02       2.580732489638e+04 
       1.765320308945e-02       2.579011683076e+04 
       1.778142562568e-02       2.577147832782e+04 
       1.790969996565e-02       2.575143336244e+04 
       1.803802694888e-02       2.573001992146e+04 
       1.816640743897e-02       2.570725564507e+04 
       1.829484232403e-02       2.568316080737e+04 
       1.842333251702e-02       2.565774902814e+04 
       1.855187895613e-02       2.563103803241e+04 
       1.868048260524e-02       2.560307367135e+04 
       1.880914445430e-02       2.557383676412e+04 
       1.893786551981e-02       2.554337062459e+04 
       1.906664684526e-02       2.551166084818e+04 
       1.919548950162e-02       2.547881105222e+04 
       1.932439458786e-02       2.544476159093e+04 
       1.945336323142e-02       2.540955929322e+04 
       1.958239658880e-02       2.537323060651e+04 
       1.971149584607e-02       2.533578191039e+04 
       1.984066221950e-02       2.529721657507e+04 
       1.996989695609e-02       2.525759009603e+04 
       2.009920133423e-02       2.521691268605e+04 
       2.022857666434e-02       2.517516747225e+04 
       2.035802428951e-02       2.513242011508e+04 
       2.048754558616e-02       2.508868220447e+04 
       2.061714196479e-02       2.504391214713e+04 
       2.074681487069e-02       2.499820266286e+04 
       2.087656578465e-02       2.495155833794e+04 
       2.100639622377e-02       2.490392831146e+04 
       2.113630774228e-02       2.485544735051e+04 
       2.126630193229e-02       2.480599394158e+04 
       2.139638042471e-02       2.475570949684e+04 
       2.152654489007e-02       2.470455221705e+04 
       2.165679703947e-02       2.465254484789e+04 
       2.178713862548e-02       2.459967824066e+04 
       2.191757144310e-02       2.454596059877e+04 
       2.204809733079e-02       2.449154667686e+04 
       2.217871817142e-02       2.443631429360e+04 
       2.230943589341e-02       2.438032035407e+04 
       2.244025247174e-02       2.432351795737e+04 
       2.257116992911e-02       2.426605363951e+04 
       2.270219033711e-02       2.420780658111e+04 
       2.283331581736e-02       2.414886857901e+04 
       2.296454854279e-02       2.408928632579e+04 
       2.309589073890e-02       2.402897489208e+04 
       2.322734468502e-02       2.396804230551e+04 
       2.335891271576e-02       2.390646031347e+04 
       2.349059722228e-02       2.384432585235e+04 
       2.362240065383e-02       2.378144972693e+04 
       2.375432551919e-02       2.371801129498e+04 
       2.388637438821e-02       2.365399472164e+04 
       2.401854989336e-02       2.358941552602e+04 
       2.415085473142e-02       2.352426506866e+04 
       2.428329166514e-02       2.345856186951e+04 
       2.441586352494e-02       2.339232472966e+04 
       2.454857321079e-02       2.332556996117e+04 
       2.468142369399e-02       2.325832054321e+04 
       2.481441801914e-02       2.319064960227e+04 
       2.494755930608e-02       2.312235904868e+04 
       2.508085075199e-02       2.305368235036e+04 
       2.521429563346e-02       2.298458018941e+04 
       2.534789730872e-02       2.291500751385e+04 
       2.548165921987e-02       2.284502686567e+04 
       2.561558489524e-02       2.277460224817e+04 
       2.574967795181e-02       2.270385140720e+04 
       2.588394209772e-02       2.263258728591e+04 
       2.601838113487e-02       2.256101509052e+04 
       2.615299896159e-02       2.248905036515e+04 
       2.628779957541e-02       2.241672951856e+04 
       2.642278707600e-02       2.234404203891e+04 
       2.655796566807e-02       2.227107848673e+04 
       2.669333966451e-02       2.219778579497e+04 
       2.682891348959e-02       2.212415389617e+04 
       2.696469168225e-02       2.205024212240e+04 
       2.710067889959e-02       2.197604661356e+04 
       2.723687992039e-02       2.190154784539e+04 
       2.737329964881e-02       2.182681357658e+04 
       2.750994311830e-02       2.175173583393e+04 
       2.764681549549e-02       2.167648323931e+04 
       2.778392208438e-02       2.160094424018e+04 
       2.792126833067e-02       2.152519091595e+04 
       2.805885982612e-02       2.144924417709e+04 
       2.819670231330e-02       2.137310606036e+04 
       2.833480169033e-02       2.129667930336e+04 
       2.847316401594e-02       2.122010700515e+04 
       2.861179551463e-02       2.114335633883e+04 
       2.875070258213e-02       2.106640061901e+04 
       2.888989179104e-02       2.098934409792e+04 
       2.902936989667e-02       2.091204888339e+04 
       2.916914384316e-02       2.083465778156e+04 
       2.930922076986e-02       2.075706115193e+04 
       2.944960801796e-02       2.067942640236e+04 
       2.959031313739e-02       2.060156634343e+04 
       2.973134389403e-02       2.052365592824e+04 
       2.987270827724e-02       2.044560635208e+04 
       3.001441450769e-02       2.036743252214e+04 
       3.015647104552e-02       2.028915912271e+04 
       3.029888659896e-02       2.021078653821e+04 
       3.044167013317e-02       2.013239512151e+04 
       3.058483087963e-02       2.005391736851e+04 
       3.072837834586e-02       1.997531441066e+04 
       3.087232232562e-02       1.989675230538e+04 
       3.101667290960e-02       1.981800207693e+04 
       3.116144049654e-02       1.973921305416e+04 
       3.130663580496e-02       1.966045793325e+04 
       3.145226988536e-02       1.958160442080e+04 
       3.159835413309e-02       1.950273447043e+04 
       3.174490030179e-02       1.942380611801e+04 
       3.189192051748e-02       1.934487372354e+04 
       3.203942729336e-02       1.926593404516e+04 
       3.218743354537e-02       1.918693148051e+04 
       3.233595260852e-02       1.910798572691e+04 
       3.248499825399e-02       1.902901668621e+04 
       3.263458470722e-02       1.895004238793e+04 
       3.278472666682e-02       1.887103832548e+04 
       3.293543932459e-02       1.879205809997e+04 
       3.308673838647e-02       1.871308407872e+04 
       3.323864009474e-02       1.863420828629e+04 
       3.339116125130e-02       1.855524113957e+04 
       3.354431924234e-02       1.847638381835e+04 
       3.369813206428e-02       1.839745830046e+04 
       3.385261835117e-02       1.831859030819e+04 
       3.400779740372e-02       1.823976532424e+04 
       3.416368921987e-02       1.816099234772e+04 
       3.432031452723e-02       1.808218606407e+04 
       3.447769481733e-02       1.800349479534e+04 
       3.463585238194e-02       1.792489215177e+04 
       3.479481035157e-02       1.784615186634e+04 
       3.495459273628e-02       1.776763567692e+04 
       3.511522446894e-02       1.768906046984e+04 
       3.527673145131e-02       1.761061604154e+04 
       3.543914060283e-02       1.753211871712e+04 
       3.560247991263e-02       1.745371009462e+04 
       3.576677849487e-02       1.737540221567e+04 
       3.593206664762e-02       1.729707157661e+04 
       3.609837591567e-02       1.721883589798e+04 
       3.626573915752e-02       1.714065387114e+04 
       3.643419061693e-02       1.706246296596e+04 
       3.660376599932e-02       1.698439925208e+04 
       3.677450255347e-02       1.690634619829e+04 
       3.694643915907e-02       1.682835249266e+04 
       3.711961642039e-02       1.675039058023e+04 
       3.729407676682e-02       1.667249341143e+04 
       3.746986456072e-02       1.659462091684e+04 
       3.764702621334e-02       1.651685902161e+04 
       3.782561030946e-02       1.643902114376e+04 
       3.800566774162e-02       1.636137712516e+04 
       3.818725185471e-02       1.628366239760e+04 
       3.837041860203e-02       1.620599039344e+04 
       3.855522671382e-02       1.612836472866e+04 
       3.874173787950e-02       1.605078709856e+04 
       3.893001694499e-02       1.597320239352e+04 
       3.912013212653e-02       1.589566033428e+04 
       3.931215524282e-02       1.581814530358e+04 
       3.950616196719e-02       1.574062699483e+04 
       3.970223210203e-02       1.566309308811e+04 
       3.990044987786e-02       1.558554967343e+04 
       4.010090427955e-02       1.550802938512e+04 
       4.030368940291e-02       1.543054538667e+04 
       4.050890484479e-02       1.535300863829e+04 
       4.071665613083e-02       1.527540273496e+04 
       4.092705518487e-02       1.519773610888e+04 
       4.114022084525e-02       1.512010439285e+04 
       4.135627943352e-02       1.504238598678e+04 
       4.157536538188e-02       1.496465491889e+04 
       4.179762192697e-02       1.488675015343e+04 
       4.202320187813e-02       1.480882714508e+04 
       4.225226847013e-02       1.473076738129e+04 
       4.248499631127e-02       1.465267809089e+04 
       4.272157244006e-02       1.457440929052e+04 
       4.296219750515e-02       1.449600091720e+04 
       4.320708708617e-02       1.441746249093e+04 
       4.345647317561e-02       1.433874609699e+04 
       4.371060584555e-02       1.425981559449e+04 
       4.396975512697e-02       1.418073648426e+04 
       4.423421313441e-02       1.410134468520e+04 
       4.450429647462e-02       1.402177353245e+04 
       4.478034898494e-02       1.394189207048e+04 
       4.506274485580e-02       1.386172117273e+04 
       4.535189220227e-02       1.378119167118e+04 
       4.564823716236e-02       1.370032679547e+04 
       4.595226861560e-02       1.361908333796e+04 
       4.626452363460e-02       1.353739786424e+04 
       4.658559380650e-02       1.345522293255e+04 
       4.691613259066e-02       1.337255390946e+04 
       4.725686391609e-02       1.328930818403e+04 
       4.760859226853e-02       1.320543906944e+04 
       4.797221457507e-02       1.312088960455e+04 
       4.834873426804e-02       1.303560318770e+04 
       4.873927800244e-02       1.294949112349e+04 
       4.914511561964e-02       1.286244370383e+04 
       4.956768410016e-02       1.277445120090e+04 
       5.000861643991e-02       1.268527452144e+04 
       5.046977662859e-02       1.259488682065e+04 
       5.095330221923e-02       1.250312969517e+04 
       5.146165637063e-02       1.240975013466e+04 
       5.199769173516e-02       1.231461417112e+04 
       5.256472916703e-02       1.221748289455e+04 
       5.316665493874e-02       1.211798290707e+04 
       5.380804094473e-02       1.201577901270e+04 
       5.449429313176e-02       1.191044704572e+04 
       5.523183386313e-02       1.180137887070e+04 
       5.602832352038e-02       1.168782576245e+04 
       5.689292419167e-02       1.156881256525e+04 
       5.783660149455e-02       1.144316371870e+04 
