# Matter power spectrum P(k) at redshift z=0
# for k=8.06198e-06 to 23.1673 h/Mpc,
# number of wavenumbers equal to 861
#    1:k (h/Mpc)              2:P (Mpc/h)^3        
       8.061980080967e-06       1.011571462122e+02 
       1.799630943511e-05       2.193937206422e+02 
       2.795144444371e-05       3.354098492985e+02 
       3.794330216898e-05       4.503296505263e+02 
       4.798795688201e-05       5.647406447174e+02 
       5.810172544538e-05       6.790497208834e+02 
       6.830125434979e-05       7.935816452865e+02 
       7.860360911496e-05       9.086183062332e+02 
       8.902636677084e-05       1.024417765293e+03 
       9.958771214245e-05       1.141225024487e+03 
       1.103065386704e-04       1.259278707606e+03 
       1.212025545063e-04       1.378815651755e+03 
       1.322963946267e-04       1.500074292506e+03 
       1.436097397060e-04       1.623297407700e+03 
       1.551654424775e-04       1.748734345619e+03 
       1.669876622809e-04       1.876643105548e+03 
       1.791020084481e-04       2.007292174401e+03 
       1.915356930940e-04       2.140962337025e+03 
       2.043176937639e-04       2.277948399770e+03 
       2.174789262103e-04       2.418560910508e+03 
       2.310524273322e-04       2.563127852188e+03 
       2.450735479811e-04       2.711996351387e+03 
       2.595801548955e-04       2.865534347682e+03 
       2.746128404513e-04       3.024132246655e+03 
       2.902151381750e-04       3.188204520717e+03 
       3.064337410232e-04       3.358191193168e+03 
       3.233187182630e-04       3.534559203348e+03 
       3.409237253478e-04       3.717803532242e+03 
       3.593061994556e-04       3.908448041770e+03 
       3.785275313216e-04       4.107045891393e+03 
       3.986532016651e-04       4.314179460668e+03 
       4.197528679206e-04       4.530459528080e+03 
       4.419003842333e-04       4.756523633770e+03 
       4.651737349255e-04       4.993033379219e+03 
       4.896548591380e-04       5.240670477973e+03 
       5.154293424640e-04       5.500131266810e+03 
       5.425859505803e-04       5.772119590754e+03 
       5.712159807542e-04       6.057337749780e+03 
       6.014124102975e-04       6.356475490074e+03 
       6.332688272377e-04       6.670196791648e+03 
       6.668781382122e-04       6.999124798813e+03 
       7.023310621381e-04       7.343824768045e+03 
       7.397144353408e-04       7.704785896327e+03 
       7.791093736539e-04       8.082401967383e+03 
       8.205893578336e-04       8.476952462437e+03 
       8.642183279931e-04       8.888584515683e+03 
       9.100488876135e-04       9.317297510556e+03 
       9.581207249038e-04       9.762930850367e+03 
       1.008459356273e-03       1.022515644449e+04 
       1.061075282125e-03       1.070347695750e+04 
       1.072292226224e-03       1.080481309301e+04 
       1.115963619604e-03       1.119722985761e+04 
       1.173104242760e-03       1.170559779148e+04 
       1.232462422144e-03       1.222762413125e+04 
       1.293989918186e-03       1.276223335181e+04 
       1.357626450844e-03       1.330825453205e+04 
       1.423301445879e-03       1.386444632010e+04 
       1.490935947676e-03       1.442952161676e+04 
       1.560444589730e-03       1.500217173001e+04 
       1.631737524957e-03       1.558108660117e+04 
       1.704722235902e-03       1.616497431799e+04 
       1.779305166283e-03       1.675257424061e+04 
       1.855393137210e-03       1.734267155898e+04 
       1.932894531257e-03       1.793410550867e+04 
       2.011720244074e-03       1.852578053025e+04 
       2.091784415607e-03       1.911667213204e+04 
       2.173004961316e-03       1.970583312473e+04 
       2.255303928519e-03       2.029239653919e+04 
       2.338607704804e-03       2.087557444582e+04 
       2.422847105149e-03       2.145465617846e+04 
       2.507957362592e-03       2.202900127647e+04 
       2.593878044691e-03       2.259803498187e+04 
       2.680552914988e-03       2.316123939836e+04 
       2.767929755618e-03       2.371814998745e+04 
       2.855960164255e-03       2.426835412113e+04 
       2.944599335947e-03       2.481148657012e+04 
       3.033805838064e-03       2.534723116191e+04 
       3.123541384599e-03       2.587531746702e+04 
       3.213770614470e-03       2.639552066209e+04 
       3.304460877095e-03       2.690765262152e+04 
       3.395582027508e-03       2.741155658715e+04 
       3.487106232435e-03       2.790710485189e+04 
       3.579007788121e-03       2.839419011192e+04 
       3.671262950231e-03       2.887271653605e+04 
       3.763849775804e-03       2.934262244321e+04 
       3.856747976971e-03       2.980385249893e+04 
       3.949938785993e-03       3.025637393501e+04 
       4.043404831068e-03       3.070016938944e+04 
       4.137130022261e-03       3.113524416310e+04 
       4.231099446911e-03       3.156161734990e+04 
       4.325299273839e-03       3.197931640583e+04 
       4.419716665697e-03       3.238837539251e+04 
       4.514339698823e-03       3.278883190729e+04 
       4.609157289984e-03       3.318072706386e+04 
       4.704159129438e-03       3.356411028454e+04 
       4.799335619774e-03       3.393904244878e+04 
       4.894677820024e-03       3.430558261956e+04 
       4.990177394600e-03       3.466381091629e+04 
       5.085826566600e-03       3.501380036784e+04 
       5.181618075130e-03       3.535563649820e+04 
       5.277545136245e-03       3.568940071843e+04 
       5.373601407215e-03       3.601516719090e+04 
       5.469780953795e-03       3.633302560034e+04 
       5.566078220244e-03       3.664305364656e+04 
       5.662488001836e-03       3.694533435153e+04 
       5.759005419646e-03       3.723995602860e+04 
       5.855625897403e-03       3.752701420421e+04 
       5.952345140231e-03       3.780659996703e+04 
       6.049159115110e-03       3.807881485242e+04 
       6.146064032898e-03       3.834374249921e+04 
       6.243056331793e-03       3.860148392548e+04 
       6.340132662092e-03       3.885211739471e+04 
       6.437289872143e-03       3.909573933730e+04 
       6.534524995394e-03       3.933243794095e+04 
       6.631835238435e-03       3.956230359775e+04 
       6.729217969946e-03       3.978542665713e+04 
       6.826670710493e-03       4.000190309387e+04 
       6.924191123085e-03       4.021182066997e+04 
       7.021777004428e-03       4.041527939798e+04 
       7.119426276831e-03       4.061235814676e+04 
       7.217136980705e-03       4.080314291697e+04 
       7.314907267602e-03       4.098772135490e+04 
       7.412735393758e-03       4.116617615830e+04 
       7.510619714095e-03       4.133859839162e+04 
       7.608558676651e-03       4.150506419769e+04 
       7.706550817403e-03       4.166564889799e+04 
       7.804594755442e-03       4.182048900279e+04 
       7.902689188495e-03       4.196961733745e+04 
       8.000832888749e-03       4.211314694577e+04 
       8.099024698957e-03       4.225112485753e+04 
       8.197263528816e-03       4.238365219784e+04 
       8.295548351580e-03       4.251079448604e+04 
       8.393878200914e-03       4.263262568434e+04 
       8.492252167940e-03       4.274924847987e+04 
       8.590669398492e-03       4.286072044727e+04 
       8.689129090551e-03       4.296711284845e+04 
       8.787630491838e-03       4.306851862741e+04 
       8.886172897582e-03       4.316498807648e+04 
       8.984755648411e-03       4.325662252812e+04 
       9.083378128405e-03       4.334347595308e+04 
       9.182039763251e-03       4.342560488691e+04 
       9.280740018539e-03       4.350311471199e+04 
       9.379478398147e-03       4.357604874145e+04 
       9.478254442751e-03       4.364448615345e+04 
       9.577067728413e-03       4.370848987816e+04 
       9.675917865273e-03       4.376813315773e+04 
       9.774804496316e-03       4.382346836639e+04 
       9.873727296229e-03       4.387457994338e+04 
       9.972685970321e-03       4.392150562296e+04 
       1.007168025352e-02       4.396433013501e+04 
       1.017070990945e-02       4.400311696242e+04 
       1.026977472953e-02       4.403790455936e+04 
       1.036887453217e-02       4.406876687634e+04 
       1.046800916202e-02       4.409578629380e+04 
       1.056717848923e-02       4.411900097029e+04 
       1.066638240882e-02       4.413847069992e+04 
       1.072292226224e-02       4.414792791119e+04 
       1.076562084005e-02       4.415427176226e+04 
       1.086489372586e-02       4.416642996911e+04 
       1.096420103233e-02       4.417502768825e+04 
       1.106354274818e-02       4.418011036674e+04 
       1.116291888435e-02       4.418174029740e+04 
       1.126232947356e-02       4.417996841749e+04 
       1.136177456994e-02       4.417484765570e+04 
       1.146125424867e-02       4.416644371795e+04 
       1.156076860566e-02       4.415479858652e+04 
       1.166031775727e-02       4.413995246508e+04 
       1.175990184005e-02       4.412199699129e+04 
       1.185952101049e-02       4.410093741900e+04 
       1.195917544482e-02       4.407685071068e+04 
       1.205886533883e-02       4.404977084129e+04 
       1.215859090771e-02       4.401979250548e+04 
       1.225835238590e-02       4.398690332849e+04 
       1.235815002698e-02       4.395119167155e+04 
       1.245798410360e-02       4.391268222133e+04 
       1.255785490737e-02       4.387144792861e+04 
       1.265776274881e-02       4.382751482354e+04 
       1.275770795736e-02       4.378093612791e+04 
       1.285769088132e-02       4.373178687507e+04 
       1.295771188787e-02       4.368004738176e+04 
       1.305777136308e-02       4.362580521096e+04 
       1.315786971198e-02       4.356909627859e+04 
       1.325800735857e-02       4.350997171377e+04 
       1.335818474595e-02       4.344849354054e+04 
       1.345840233635e-02       4.338466998764e+04 
       1.355866061129e-02       4.331851747267e+04 
       1.365896007164e-02       4.325016244771e+04 
       1.375930123784e-02       4.317957806224e+04 
       1.385968464997e-02       4.310683056763e+04 
       1.396011086798e-02       4.303196120185e+04 
       1.406058047183e-02       4.295501240810e+04 
       1.416109406174e-02       4.287605897068e+04 
       1.426165225834e-02       4.279501331618e+04 
       1.436225570296e-02       4.271205872510e+04 
       1.446290505785e-02       4.262716627451e+04 
       1.456360100643e-02       4.254039663988e+04 
       1.466434425358e-02       4.245177576189e+04 
       1.476513552594e-02       4.236129719823e+04 
       1.486597557218e-02       4.226904640105e+04 
       1.496686516337e-02       4.217509291197e+04 
       1.506780509328e-02       4.207941637499e+04 
       1.516879617876e-02       4.198204117731e+04 
       1.526983926007e-02       4.188307590086e+04 
       1.537093520132e-02       4.178248349883e+04 
       1.547208489083e-02       4.168034271162e+04 
       1.557328924155e-02       4.157671966403e+04 
       1.567454919152e-02       4.147153333168e+04 
       1.577586570431e-02       4.136490760431e+04 
       1.587723976946e-02       4.125684284284e+04 
       1.597867240303e-02       4.114741397505e+04 
       1.608016464804e-02       4.103659828993e+04 
       1.618171757502e-02       4.092443589565e+04 
       1.628333228258e-02       4.081088573062e+04 
       1.638500989792e-02       4.069623407852e+04 
       1.648675157744e-02       4.058031259143e+04 
       1.658855850735e-02       4.046307206879e+04 
       1.669043190427e-02       4.034477544195e+04 
       1.679237301587e-02       4.022525746040e+04 
       1.689438312157e-02       4.010469678240e+04 
       1.699646353319e-02       3.998294506412e+04 
       1.709861559566e-02       3.986020385754e+04 
       1.720084068780e-02       3.973647357890e+04 
       1.730314022300e-02       3.961158057203e+04 
       1.740551565008e-02       3.948570179196e+04 
       1.750796845405e-02       3.935906051296e+04 
       1.761050015697e-02       3.923146785237e+04 
       1.771311231877e-02       3.910284872012e+04 
       1.781580653820e-02       3.897342954064e+04 
       1.791858445370e-02       3.884318949443e+04 
       1.802144774437e-02       3.871207647866e+04 
       1.812439813096e-02       3.858024937293e+04 
       1.822743737683e-02       3.844764582288e+04 
       1.833056728906e-02       3.831426764680e+04 
       1.843378971949e-02       3.818015898236e+04 
       1.853710656583e-02       3.804534858405e+04 
       1.864051977284e-02       3.790999330275e+04 
       1.874403133349e-02       3.777382476574e+04 
       1.884764329017e-02       3.763706134611e+04 
       1.895135773601e-02       3.749970906865e+04 
       1.905517681614e-02       3.736176271628e+04 
       1.915910272908e-02       3.722339933211e+04 
       1.926313772810e-02       3.708446118536e+04 
       1.936728412269e-02       3.694487064419e+04 
       1.947154428003e-02       3.680499439697e+04 
       1.957592062656e-02       3.666452001881e+04 
       1.968041564955e-02       3.652359522318e+04 
       1.978503189876e-02       3.638225670448e+04 
       1.988977198815e-02       3.624052754833e+04 
       1.999463859763e-02       3.609842521640e+04 
       2.009963447489e-02       3.595592330856e+04 
       2.020476243729e-02       3.581306187793e+04 
       2.031002537382e-02       3.566984146295e+04 
       2.041542624710e-02       3.552638170400e+04 
       2.052096809551e-02       3.538260965668e+04 
       2.062665403532e-02       3.523856671490e+04 
       2.073248726296e-02       3.509430103313e+04 
       2.083847105734e-02       3.494962649695e+04 
       2.094460878224e-02       3.480490134861e+04 
       2.105090388885e-02       3.465988021865e+04 
       2.115735991832e-02       3.451472854633e+04 
       2.126398050448e-02       3.436940259133e+04 
       2.137076937659e-02       3.422391193335e+04 
       2.147773036226e-02       3.407817020653e+04 
       2.158486739040e-02       3.393239829237e+04 
       2.169218449441e-02       3.378648266133e+04 
       2.179968581534e-02       3.364056426438e+04 
       2.190737560527e-02       3.349449574453e+04 
       2.201525823079e-02       3.334831817242e+04 
       2.212333817665e-02       3.320211870884e+04 
       2.223162004947e-02       3.305584907346e+04 
       2.234010858168e-02       3.290959425312e+04 
       2.244880863562e-02       3.276330146456e+04 
       2.255772520772e-02       3.261703928199e+04 
       2.266686343292e-02       3.247085669750e+04 
       2.277622858926e-02       3.232454358103e+04 
       2.288582610268e-02       3.217832844692e+04 
       2.299566155193e-02       3.203214006605e+04 
       2.310574067381e-02       3.188597053733e+04 
       2.321606936853e-02       3.173994072223e+04 
       2.332665370537e-02       3.159403608521e+04 
       2.343749992852e-02       3.144812036725e+04 
       2.354861446322e-02       3.130233531238e+04 
       2.366000392217e-02       3.115673541404e+04 
       2.377167511217e-02       3.101115609905e+04 
       2.388363504113e-02       3.086574826057e+04 
       2.399589092532e-02       3.072050139611e+04 
       2.410845019703e-02       3.057532228125e+04 
       2.422132051247e-02       3.043036429337e+04 
       2.433450976018e-02       3.028563129143e+04 
       2.444802606966e-02       3.014093167701e+04 
       2.456187782060e-02       2.999645141599e+04 
       2.467607365234e-02       2.985229363619e+04 
       2.479062247396e-02       2.970813086691e+04 
       2.490553347476e-02       2.956436860972e+04 
       2.502081613526e-02       2.942074228099e+04 
       2.513648023880e-02       2.927726666952e+04 
       2.525253588363e-02       2.913390894752e+04 
       2.536899349570e-02       2.899108598140e+04 
       2.548586384198e-02       2.884829056199e+04 
       2.560315804463e-02       2.870586594247e+04 
       2.572088759575e-02       2.856351877448e+04 
       2.583906437297e-02       2.842159667956e+04 
       2.595770065585e-02       2.827979853172e+04 
       2.607680914321e-02       2.813834879988e+04 
       2.619640297129e-02       2.799706262266e+04 
       2.631649573298e-02       2.785616270458e+04 
       2.643710149813e-02       2.771546610157e+04 
       2.655823483491e-02       2.757500465244e+04 
       2.667991083242e-02       2.743489915469e+04 
       2.680214512462e-02       2.729501180154e+04 
       2.692495391562e-02       2.715545972605e+04 
       2.704835400638e-02       2.701616822750e+04 
       2.717236282310e-02       2.687717014560e+04 
       2.729699844722e-02       2.673845144343e+04 
       2.742227964727e-02       2.660002555440e+04 
       2.754822591265e-02       2.646192550525e+04 
       2.767485748952e-02       2.632410917460e+04 
       2.780219541892e-02       2.618651388376e+04 
       2.793026157731e-02       2.604917927976e+04 
       2.805907871972e-02       2.591226424287e+04 
       2.818867052569e-02       2.577565840159e+04 
       2.831906164825e-02       2.563927040829e+04 
       2.845027776616e-02       2.550315792508e+04 
       2.858234563970e-02       2.536735450988e+04 
       2.871529317019e-02       2.523182674126e+04 
       2.884914946378e-02       2.509660631668e+04 
       2.898394489960e-02       2.496168086210e+04 
       2.911971120283e-02       2.482698173982e+04 
       2.925648152304e-02       2.469261174911e+04 
       2.939429051823e-02       2.455846657044e+04 
       2.953317444520e-02       2.442460122983e+04 
       2.967317125661e-02       2.429104179130e+04 
       2.981432070560e-02       2.415766220628e+04 
       2.995666445840e-02       2.402459904432e+04 
       3.010024621591e-02       2.389179108838e+04 
       3.024511184495e-02       2.375917922870e+04 
       3.039130952018e-02       2.362681354590e+04 
       3.053888987772e-02       2.349469275765e+04 
       3.068790618169e-02       2.336282147830e+04 
       3.083841450485e-02       2.323117420448e+04 
       3.099047392491e-02       2.309966284262e+04 
       3.114414673816e-02       2.296830434759e+04 
       3.129949869211e-02       2.283724909184e+04 
       3.145659923936e-02       2.270627447972e+04 
       3.161552181502e-02       2.257552424703e+04 
       3.177634414011e-02       2.244492713274e+04 
       3.193914855422e-02       2.231450095352e+04 
       3.210402238057e-02       2.218416159412e+04 
       3.227105832737e-02       2.205385450553e+04 
       3.244035492989e-02       2.192373548141e+04 
       3.261201703814e-02       2.179364710532e+04 
       3.278615635594e-02       2.166368874683e+04 
       3.296289203783e-02       2.153375174608e+04 
       3.314235135138e-02       2.140381709607e+04 
       3.332467041354e-02       2.127402168439e+04 
       3.350999501102e-02       2.114395749896e+04 
       3.369848151631e-02       2.101406841597e+04 
       3.389029791269e-02       2.088400484118e+04 
       3.408562494410e-02       2.075391704360e+04 
       3.428465740802e-02       2.062372866442e+04 
       3.448760561293e-02       2.049335553854e+04 
       3.469469702561e-02       2.036281197932e+04 
       3.490617813809e-02       2.023207810914e+04 
       3.512231658961e-02       2.010107528787e+04 
       3.534340358547e-02       1.996979832638e+04 
       3.556975666289e-02       1.983817199049e+04 
       3.580172286384e-02       1.970620798371e+04 
       3.603968238673e-02       1.957374235908e+04 
       3.628405280403e-02       1.944086617336e+04 
       3.653529395100e-02       1.930740873803e+04 
       3.679391361367e-02       1.917330425386e+04 
       3.706047417268e-02       1.903858249023e+04 
       3.733560039505e-02       1.890309244999e+04 
       3.761998861062e-02       1.876668173207e+04 
       3.791441756639e-02       1.862937672153e+04 
       3.821976132312e-02       1.849099161820e+04 
       3.853700464908e-02       1.835142285310e+04 
       3.886726148110e-02       1.821044055241e+04 
       3.921179716975e-02       1.806806571862e+04 
       3.957205541263e-02       1.792389404068e+04 
       3.994969101772e-02       1.777781013254e+04 
