# dimensionless total [l(l+1)/2pi] C_l's
# for l=2 to 6000, i.e. number of multipoles equal to 5999
#
# -> if you prefer output in CAMB/HealPix/LensPix units/order, set 'format' to 'camb' in input file
# -> if you don't want to see such a header, set 'headers' to 'no' in input file
# -> for CMB lensing (phi), these are C_l^phi-phi for the lensing potential.
#    Remember the conversion factors:
#    C_l^dd (deflection) = l(l+1) C_l^phi-phi
#    C_l^gg (shear/convergence) = 1/4 (l(l+1))^2 C_l^phi-phi
#
# 1:l     2:TT                     3:EE                     4:TE                     5:BB                     6:phiphi                 7:TPhi                   8:Ephi               
    2       1.673252486049e-10       4.358355970450e-15       3.262937901053e-13       0.000000000000e+00       7.215479391877e-09       5.899344842147e-10      -1.833418191303e-12 
    3       1.525622377668e-10       5.254164620822e-15       3.769086416521e-13       0.000000000000e+00       4.499860748770e-09       4.105513256928e-10      -1.339303136338e-12 
    4       1.405624602847e-10       4.220885577233e-15       3.536568234483e-13       0.000000000000e+00       3.136894761728e-09       3.067408051227e-10      -8.211021043069e-13 
    5       1.319017276176e-10       2.610373480397e-15       2.993945591738e-13       0.000000000000e+00       2.342190837856e-09       2.399183732603e-10      -4.043530311440e-13 
    6       1.259065661550e-10       1.388204258257e-15       2.390403372621e-13       0.000000000000e+00       1.828578342252e-09       1.937365440504e-10      -1.168889610426e-13 
    7       1.218542179241e-10       7.713538908727e-16       1.865031433217e-13       0.000000000000e+00       1.473406364344e-09       1.602258212296e-10       4.771194937643e-14 
    8       1.192214826912e-10       5.396563674066e-16       1.473849119228e-13       0.000000000000e+00       1.216204214240e-09       1.350300279228e-10       1.137637336425e-13 
    9       1.176094340253e-10       4.407061444423e-16       1.224467969317e-13       0.000000000000e+00       1.023353027327e-09       1.155773018342e-10       1.130440941847e-13 
   10       1.167559996973e-10       3.625774540969e-16       1.098022187153e-13       0.000000000000e+00       8.744135181420e-10       1.002207712164e-10       7.713608653627e-14 
   11       1.164820614013e-10       3.003080790399e-16       1.063811690854e-13       0.000000000000e+00       7.415510301340e-10       8.821000193166e-11       3.238069341138e-14 
   12       1.166727381238e-10       2.697046877466e-16       1.089715115791e-13       0.000000000000e+00       6.477069617741e-10       7.785089024046e-11      -5.148118251453e-15 
   13       1.171538400535e-10       2.680352074457e-16       1.149046492103e-13       0.000000000000e+00       5.706577337490e-10       6.931621778025e-11      -2.701384578750e-14 
   14       1.179293896722e-10       2.830629768404e-16       1.223896474337e-13       0.000000000000e+00       5.065428629506e-10       6.194101779126e-11      -3.318989994078e-14 
   15       1.189651527025e-10       3.098567109645e-16       1.303459122276e-13       0.000000000000e+00       4.525719396122e-10       5.573047775218e-11      -2.771417422324e-14 
   16       1.201603809655e-10       3.523691335417e-16       1.383626864670e-13       0.000000000000e+00       4.066840584000e-10       5.040373690193e-11      -1.686126650011e-14 
   17       1.214958939936e-10       4.151651227207e-16       1.466012114766e-13       0.000000000000e+00       3.673217572869e-10       4.578813160541e-11      -6.320524890902e-15 
   18       1.229858351024e-10       4.983453437234e-16       1.552634419461e-13       0.000000000000e+00       3.331620945104e-10       4.177889073271e-11       1.316666301051e-16 
   19       1.246264596880e-10       6.008782603618e-16       1.645042933587e-13       0.000000000000e+00       3.036584661559e-10       3.830576168531e-11       1.714575979044e-15 
   20       1.263466723946e-10       7.211113230105e-16       1.743898163922e-13       0.000000000000e+00       2.776784297185e-10       3.521777264858e-11      -9.687668110820e-16 
   21       1.281504471348e-10       8.590193290913e-16       1.846512571139e-13       0.000000000000e+00       2.548135268807e-10       3.246215531359e-11      -6.022122574228e-15 
   22       1.300338289814e-10       1.014863553829e-15       1.948376381739e-13       0.000000000000e+00       2.345149890186e-10       2.997958870320e-11      -1.084363154759e-14 
   23       1.320028312502e-10       1.188766250503e-15       2.045991939378e-13       0.000000000000e+00       2.165032338670e-10       2.776895830651e-11      -1.407087552926e-14 
   24       1.340431249447e-10       1.380888055047e-15       2.135980021421e-13       0.000000000000e+00       2.003618215998e-10       2.581520741780e-11      -1.486506371768e-14 
   25       1.361501077956e-10       1.592611539915e-15       2.216269371346e-13       0.000000000000e+00       1.859000935985e-10       2.407207444284e-11      -1.354582667552e-14 
   26       1.383073041798e-10       1.825800408370e-15       2.285515537009e-13       0.000000000000e+00       1.728553625112e-10       2.246980281012e-11      -1.100495308030e-14 
   27       1.405177232900e-10       2.082217291314e-15       2.344190709331e-13       0.000000000000e+00       1.610707453240e-10       2.099967869420e-11      -8.332283681557e-15 
   28       1.427797541838e-10       2.363563523267e-15       2.393442226782e-13       0.000000000000e+00       1.503428185457e-10       1.966142597921e-11      -6.640970244469e-15 
   29       1.450989018468e-10       2.671039640491e-15       2.433539543409e-13       0.000000000000e+00       1.406163125395e-10       1.845236783211e-11      -6.072099031289e-15 
   30       1.474692360695e-10       3.005641975695e-15       2.464617544832e-13       0.000000000000e+00       1.317861905277e-10       1.735679830063e-11      -6.405901238011e-15 
   31       1.498738448641e-10       3.368293711586e-15       2.486699672590e-13       0.000000000000e+00       1.236716892136e-10       1.634935503305e-11      -7.321393220973e-15 
   32       1.523162799875e-10       3.759882763882e-15       2.498680998227e-13       0.000000000000e+00       1.162306038753e-10       1.542456006948e-11      -8.427922974956e-15 
   33       1.547981637168e-10       4.181224393645e-15       2.498937753711e-13       0.000000000000e+00       1.094101272507e-10       1.457642837300e-11      -9.229895231084e-15 
   34       1.573136883926e-10       4.633111855853e-15       2.485823898324e-13       0.000000000000e+00       1.031145560369e-10       1.379331247044e-11      -9.268985495936e-15 
   35       1.598635649721e-10       5.116553391622e-15       2.458561856089e-13       0.000000000000e+00       9.731128386377e-11       1.306972023697e-11      -8.677196072822e-15 
   36       1.624441343349e-10       5.632613642222e-15       2.416657679354e-13       0.000000000000e+00       9.195327098993e-11       1.239751156352e-11      -7.822295616357e-15 
   37       1.650480705242e-10       6.182286236058e-15       2.359738735817e-13       0.000000000000e+00       8.697026559013e-11       1.176592096300e-11      -7.085113002023e-15 
   38       1.676827141691e-10       6.766273912382e-15       2.287791407349e-13       0.000000000000e+00       8.234918300954e-11       1.117427591004e-11      -6.571433968662e-15 
   39       1.703566658285e-10       7.385128163544e-15       2.201013479729e-13       0.000000000000e+00       7.807523545901e-11       1.062286300890e-11      -6.308677074389e-15 
   40       1.730742282566e-10       8.039299972835e-15       2.099761814475e-13       0.000000000000e+00       7.410749637290e-11       1.010919792826e-11      -6.322689832387e-15 
   41       1.758354943041e-10       8.729239155122e-15       1.984338527802e-13       0.000000000000e+00       7.039310787450e-11       9.629174228320e-12      -6.618401279377e-15 
   42       1.786378687269e-10       9.455746479203e-15       1.854244753189e-13       0.000000000000e+00       6.692094289498e-11       9.181570581076e-12      -7.114873545815e-15 
   43       1.814741849867e-10       1.021972552569e-14       1.708698698842e-13       0.000000000000e+00       6.368157686869e-11       8.764583030653e-12      -7.688639178552e-15 
   44       1.843316915936e-10       1.102208783525e-14       1.546830840421e-13       0.000000000000e+00       6.065118528239e-11       8.374393830244e-12      -8.189385379996e-15 
   45       1.871972549549e-10       1.186364704046e-14       1.367815765472e-13       0.000000000000e+00       5.780000444179e-11       8.006452968556e-12      -8.481153577096e-15 
   46       1.900759253936e-10       1.274476137033e-14       1.171330126138e-13       0.000000000000e+00       5.512342808651e-11       7.660151293642e-12      -8.584353251302e-15 
   47       1.929771257097e-10       1.366558581950e-14       9.572204681821e-14       0.000000000000e+00       5.261825988802e-11       7.335276177417e-12      -8.573514144415e-15 
   48       1.959093246422e-10       1.462616454753e-14       7.253781213672e-14       0.000000000000e+00       5.027333850443e-11       7.030620663685e-12      -8.539050144513e-15 
   49       1.988798955470e-10       1.562642564096e-14       4.757406273381e-14       0.000000000000e+00       4.806894586441e-11       6.743908633846e-12      -8.588141420786e-15 
   50       2.018941012179e-10       1.666629027124e-14       2.082200938286e-14       0.000000000000e+00       4.598272333221e-11       6.472513242048e-12      -8.814563073823e-15 
   51       2.049520513608e-10       1.774604725065e-14      -7.753798206160e-15       0.000000000000e+00       4.401068615649e-11       6.216015735451e-12      -9.196469701731e-15 
   52       2.080506749761e-10       1.886607109134e-14      -3.819765336569e-14       0.000000000000e+00       4.215089033863e-11       5.974211841139e-12      -9.672390434089e-15 
   53       2.111843439189e-10       2.002671663748e-14      -7.055615358641e-14       0.000000000000e+00       4.039714460666e-11       5.746342587759e-12      -1.016929199915e-14 
   54       2.143446904541e-10       2.122831921069e-14      -1.048784016051e-13       0.000000000000e+00       3.873872495246e-11       5.531056801555e-12      -1.060199951823e-14 
   55       2.175234810872e-10       2.247110359389e-14      -1.412038997366e-13       0.000000000000e+00       3.716362791725e-11       5.326810998487e-12      -1.089345926183e-14 
   56       2.207224920451e-10       2.375488417227e-14      -1.795222505466e-13       0.000000000000e+00       3.566993082796e-11       5.133271311001e-12      -1.104274844536e-14 
   57       2.239457675106e-10       2.507929055562e-14      -2.198037971817e-13       0.000000000000e+00       3.425675367689e-11       4.950194138830e-12      -1.107294600259e-14 
   58       2.271967162987e-10       2.644384888128e-14      -2.620107806672e-13       0.000000000000e+00       3.292082325372e-11       4.776999248910e-12      -1.101199862064e-14 
   59       2.304780484869e-10       2.784797840784e-14      -3.060970615107e-13       0.000000000000e+00       3.165632555597e-11       4.612749312821e-12      -1.089295355879e-14 
   60       2.337917120471e-10       2.929098810881e-14      -3.520078413059e-13       0.000000000000e+00       3.045475819953e-11       4.456129444234e-12      -1.075419146742e-14 
   61       2.371390687475e-10       3.077214109940e-14      -3.996922974850e-13       0.000000000000e+00       2.930728098557e-11       4.305812771212e-12      -1.063091165756e-14 
   62       2.405216113601e-10       3.229087252180e-14      -4.491454314229e-13       0.000000000000e+00       2.821271803460e-11       4.161699333282e-12      -1.052682783271e-14 
   63       2.439402957213e-10       3.384661474461e-14      -5.003751623192e-13       0.000000000000e+00       2.717109809138e-11       4.023920222494e-12      -1.043650338820e-14 
   64       2.473952609937e-10       3.543873261617e-14      -5.533903716548e-13       0.000000000000e+00       2.618124789389e-11       3.892468035926e-12      -1.035349449406e-14 
   65       2.508857738887e-10       3.706652221053e-14      -6.082010345212e-13       0.000000000000e+00       2.524072384844e-11       3.767188661723e-12      -1.027030536080e-14 
   66       2.544101728893e-10       3.872920957347e-14      -6.648183509483e-13       0.000000000000e+00       2.434574370474e-11       3.647773065133e-12      -1.017834350514e-14 
   67       2.579658124731e-10       4.042594946843e-14      -7.232548772325e-13       0.000000000000e+00       2.349111823103e-11       3.533749074546e-12      -1.006787501578e-14 
   68       2.615501072920e-10       4.215582956841e-14      -7.835166778946e-13       0.000000000000e+00       2.267163045974e-11       3.424615280872e-12      -9.930754679304e-15 
   69       2.651640350774e-10       4.391788682105e-14      -8.455776413956e-13       0.000000000000e+00       2.188665067914e-11       3.320292602044e-12      -9.769358734803e-15 
   70       2.688092465764e-10       4.571109216198e-14      -9.094001721209e-13       0.000000000000e+00       2.113633811520e-11       3.220749881856e-12      -9.589390084267e-15 
   71       2.724870012470e-10       4.753434426761e-14      -9.749426378320e-13       0.000000000000e+00       2.042024535854e-11       3.125865375154e-12      -9.397289345098e-15 
   72       2.761981396124e-10       4.938646844034e-14      -1.042159296920e-12       0.000000000000e+00       1.973728706172e-11       3.035422168479e-12      -9.200261084151e-15 
   73       2.799430556160e-10       5.126621549388e-14      -1.111000225655e-12       0.000000000000e+00       1.908570863670e-11       2.949103600720e-12      -9.006300051778e-15 
   74       2.837216689762e-10       5.317226063845e-14      -1.181411245444e-12       0.000000000000e+00       1.846305495212e-11       2.866488683761e-12      -8.824217415867e-15 
   75       2.875333975410e-10       5.510320236609e-14      -1.253333850076e-12       0.000000000000e+00       1.786613903072e-11       2.787047523134e-12      -8.663666995884e-15 
   76       2.913775836197e-10       5.705759189507e-14      -1.326710030183e-12       0.000000000000e+00       1.729182933442e-11       2.710272178706e-12      -8.532840809507e-15 
   77       2.952549238421e-10       5.903403016609e-14      -1.401497923087e-12       0.000000000000e+00       1.673964655914e-11       2.636106919145e-12      -8.431012573412e-15 
   78       2.991662510267e-10       6.103108659076e-14      -1.477658897865e-12       0.000000000000e+00       1.620958570754e-11       2.564588471200e-12      -8.354675818541e-15 
   79       3.031120852956e-10       6.304726958133e-14      -1.555152938550e-12       0.000000000000e+00       1.570132522874e-11       2.495715767170e-12      -8.299732740797e-15 
   80       3.070926157386e-10       6.508102606264e-14      -1.633938671802e-12       0.000000000000e+00       1.521421250149e-11       2.429448142867e-12      -8.261472642445e-15 
   81       3.111076820771e-10       6.713074098397e-14      -1.713973394584e-12       0.000000000000e+00       1.474724931732e-11       2.365703535571e-12      -8.234550373523e-15 
   82       3.151567563281e-10       6.919473683097e-14      -1.795213101832e-12       0.000000000000e+00       1.429907736375e-11       2.304356681987e-12      -8.212964773252e-15 
   83       3.192389244677e-10       7.127127313756e-14      -1.877612514130e-12       0.000000000000e+00       1.386796370743e-11       2.245237316202e-12      -8.190037111442e-15 
   84       3.233532525386e-10       7.335857182187e-14      -1.961123841355e-12       0.000000000000e+00       1.345221964681e-11       2.188173887041e-12      -8.159761183101e-15 
   85       3.274999948688e-10       7.545489908912e-14      -2.045692777479e-12       0.000000000000e+00       1.305156885035e-11       2.133136984576e-12      -8.121157976720e-15 
   86       3.316795534626e-10       7.755849627473e-14      -2.131261889440e-12       0.000000000000e+00       1.266598046528e-11       2.080116497290e-12      -8.074606747663e-15 
   87       3.358920996670e-10       7.966755517422e-14      -2.217771828474e-12       0.000000000000e+00       1.229524878730e-11       2.029077185006e-12      -8.020539023537e-15 
   88       3.401375622964e-10       8.178021798911e-14      -2.305161336540e-12       0.000000000000e+00       1.193898602727e-11       1.979957641878e-12      -7.959440098597e-15 
   89       3.444156157578e-10       8.389457727283e-14      -2.393367252752e-12       0.000000000000e+00       1.159661507788e-11       1.932669259377e-12      -7.891850528145e-15 
   90       3.487256681761e-10       8.600867587670e-14      -2.482324519807e-12       0.000000000000e+00       1.126736228039e-11       1.887095189283e-12      -7.818367622939e-15 
   91       3.530668495193e-10       8.812050689576e-14      -2.571966190416e-12       0.000000000000e+00       1.095025019126e-11       1.843089306673e-12      -7.739646943592e-15 
   92       3.574379997235e-10       9.022801361475e-14      -2.662223433730e-12       0.000000000000e+00       1.064409034889e-11       1.800475172912e-12      -7.656403794976e-15 
   93       3.618380024092e-10       9.232913363001e-14      -2.753026563780e-12       0.000000000000e+00       1.034776376254e-11       1.759088634822e-12      -7.569396574115e-15 
   94       3.662668692379e-10       9.442193892347e-14      -2.844308287744e-12       0.000000000000e+00       1.006112634642e-11       1.718915203528e-12      -7.479370703087e-15 
   95       3.707247974459e-10       9.650451685385e-14      -2.936000960380e-12       0.000000000000e+00       9.784226922936e-12       1.679971516212e-12      -7.387108987387e-15 
   96       3.752118317496e-10       9.857492840267e-14      -3.028035625730e-12       0.000000000000e+00       9.517028394329e-12       1.642263108785e-12      -7.293450239714e-15 
   97       3.797278572144e-10       1.006312087266e-13      -3.120342037580e-12       0.000000000000e+00       9.259404458862e-12       1.605783977857e-12      -7.199290525273e-15 
   98       3.842725921234e-10       1.026713677098e-13      -3.212848679919e-12       0.000000000000e+00       9.011136327042e-12       1.570516142715e-12      -7.105584407088e-15 
   99       3.888455808468e-10       1.046933905160e-13      -3.305482787396e-12       0.000000000000e+00       8.771909437828e-12       1.536429207304e-12      -7.013346191309e-15 
  100       3.934461867107e-10       1.066952381414e-13      -3.398170365779e-12       0.000000000000e+00       8.541310174837e-12       1.503479922194e-12      -6.923651172521e-15 
  101       3.980735848660e-10       1.086748479661e-13      -3.490836212409e-12       0.000000000000e+00       8.318822582549e-12       1.471611746564e-12      -6.837636879052e-15 
  102       4.027267551580e-10       1.106301343074e-13      -3.583403936664e-12       0.000000000000e+00       8.103825082524e-12       1.440754410171e-12      -6.756504318286e-15 
  103       4.074044749946e-10       1.125589889712e-13      -3.675795980416e-12       0.000000000000e+00       7.895587189603e-12       1.410823475334e-12      -6.681519221968e-15 
  104       4.121055523605e-10       1.144593330204e-13      -3.767934399830e-12       0.000000000000e+00       7.693434277034e-12       1.381739768614e-12      -6.613692004535e-15 
  105       4.168295760646e-10       1.163292788524e-13      -3.859743287005e-12       0.000000000000e+00       7.497274293105e-12       1.353491608823e-12      -6.552765718733e-15 
  106       4.215762540175e-10       1.181669911471e-13      -3.951146715123e-12       0.000000000000e+00       7.307136405559e-12       1.326080207642e-12      -6.498093072731e-15 
  107       4.263451776994e-10       1.199706387088e-13      -4.042068034798e-12       0.000000000000e+00       7.123007886658e-12       1.299500333540e-12      -6.448943251123e-15 
