# Matter power spectrum P(k) at redshift z=0
# for k=9.0192e-06 to 20.5861 h/Mpc,
# number of wavenumbers equal to 855
#    1:k (h/Mpc)              2:P (Mpc/h)^3        
       9.019201454174e-06       7.364120392282e+01 
       2.013437232318e-05       1.597262110722e+02 
       3.127867019624e-05       2.442389432906e+02 
       4.247440903451e-05       3.280302528943e+02 
       5.374417827534e-05       4.115604847863e+02 
       6.511099296095e-05       4.951592436425e+02 
       7.659844748270e-05       5.790975213115e+02 
       8.823087449441e-05       6.636166718432e+02 
       1.000335105604e-04       7.489427734912e+02 
       1.120326701213e-04       8.352948728885e+02 
       1.242559293744e-04       9.228903356454e+02 
       1.367323216761e-04       1.011948680068e+03 
       1.494925460608e-04       1.102694573182e+03 
       1.625691904350e-04       1.195360362237e+03 
       1.759969709228e-04       1.290188339764e+03 
       1.898129886899e-04       1.387432856323e+03 
       2.040570053356e-04       1.487362361669e+03 
       2.187717375774e-04       1.590261411736e+03 
       2.340031714211e-04       1.696432686019e+03 
       2.498008952548e-04       1.806198985896e+03 
       2.662184502690e-04       1.919905241735e+03 
       2.833136952002e-04       2.037920481786e+03 
       3.011491805457e-04       2.160639745914e+03 
       3.197925249974e-04       2.288485857723e+03 
       3.393167837950e-04       2.421911001642e+03 
       3.598007949172e-04       2.561397981907e+03 
       3.813294844476e-04       2.707461027568e+03 
       4.039941070762e-04       2.860645973540e+03 
       4.278923916126e-04       3.021529609567e+03 
       4.531285548632e-04       3.190717946022e+03 
       4.798131407256e-04       3.368843126865e+03 
       5.080626356595e-04       3.556558674303e+03 
       5.379988079316e-04       3.754532777921e+03 
       5.697477177126e-04       3.963439304805e+03 
       6.034383500518e-04       4.183946346434e+03 
       6.392008349528e-04       4.416702134359e+03 
       6.771642399587e-04       4.662318419686e+03 
       7.174539518240e-04       4.921351569121e+03 
       7.601887045194e-04       5.194281937958e+03 
       8.054773583407e-04       5.481492449343e+03 
       8.534155840436e-04       5.783247470307e+03 
       9.040826490048e-04       6.099673735098e+03 
       9.575385302735e-04       6.430744449748e+03 
       1.013821583378e-03       6.776268481019e+03 
       1.072946970199e-03       7.135886555909e+03 
       1.134905993731e-03       7.509072899763e+03 
       1.199666408215e-03       7.895145296210e+03 
       1.237685953032e-03       8.119912111984e+03 
       1.267173681764e-03       8.293281804752e+03 
       1.337353100265e-03       8.702541680191e+03 
       1.410112530429e-03       9.121890518260e+03 
       1.485345616560e-03       9.550226876902e+03 
       1.562935173802e-03       9.986408911417e+03 
       1.642756557639e-03       1.042927987814e+04 
       1.724680827698e-03       1.087769052591e+04 
       1.808577573914e-03       1.133051896202e+04 
       1.894317325288e-03       1.178668655732e+04 
       1.981773508839e-03       1.224516963862e+04 
       2.070823964317e-03       1.270500820139e+04 
       2.161352047312e-03       1.316530992434e+04 
       2.253247369975e-03       1.362525388869e+04 
       2.346406236227e-03       1.408409044342e+04 
       2.440731829417e-03       1.454113773048e+04 
       2.536134206954e-03       1.499578293103e+04 
       2.632530150392e-03       1.544747587652e+04 
       2.729842912233e-03       1.589572565718e+04 
       2.828001893341e-03       1.634009656606e+04 
       2.926942277899e-03       1.678020480320e+04 
       3.026604646696e-03       1.721571176330e+04 
       3.126934584318e-03       1.764632356870e+04 
       3.227882291507e-03       1.807178187105e+04 
       3.329402210537e-03       1.849186768627e+04 
       3.431452668786e-03       1.890639026120e+04 
       3.533995543625e-03       1.931518956999e+04 
       3.636995950267e-03       1.971813108013e+04 
       3.740421953082e-03       2.011510248592e+04 
       3.844244300126e-03       2.050601380565e+04 
       3.948436180119e-03       2.089078870477e+04 
       4.052973000729e-03       2.126937593384e+04 
       4.157832186856e-03       2.164172717729e+04 
       4.262992997494e-03       2.200781451851e+04 
       4.368436359704e-03       2.236762474586e+04 
       4.474144718296e-03       2.272114426593e+04 
       4.580101899811e-03       2.306837162321e+04 
       4.686292989519e-03       2.340932049351e+04 
       4.792704220213e-03       2.374400404305e+04 
       4.899322871658e-03       2.407244346588e+04 
       5.006137179679e-03       2.439467241112e+04 
       5.113136253919e-03       2.471071596493e+04 
       5.220310003429e-03       2.502061916448e+04 
       5.327649069297e-03       2.532441588008e+04 
       5.435144763619e-03       2.562215054749e+04 
       5.542789014175e-03       2.591387933445e+04 
       5.650574314243e-03       2.619963717185e+04 
       5.758493677037e-03       2.647949244210e+04 
       5.866540594312e-03       2.675348055963e+04 
       5.974708998718e-03       2.702166650655e+04 
       6.082993229540e-03       2.728410381543e+04 
       6.191388001486e-03       2.754085089438e+04 
       6.299888376236e-03       2.779195332507e+04 
       6.408489736469e-03       2.803748678406e+04 
       6.517187762150e-03       2.827750962195e+04 
       6.625978408838e-03       2.851207013827e+04 
       6.734857887851e-03       2.874123118955e+04 
       6.843822648090e-03       2.896505346552e+04 
       6.952869359376e-03       2.918360199844e+04 
       7.061994897172e-03       2.939692559707e+04 
       7.171196328541e-03       2.960510318247e+04 
       7.280470899244e-03       2.980818027775e+04 
       7.389816021878e-03       3.000620966449e+04 
       7.499229264944e-03       3.019926328971e+04 
       7.608708342784e-03       3.038740710977e+04 
       7.718251106291e-03       3.057069067955e+04 
       7.827855534349e-03       3.074916783666e+04 
       7.937519725913e-03       3.092290031381e+04 
       8.047241892697e-03       3.109194690949e+04 
       8.157020352409e-03       3.125636277938e+04 
       8.266853522487e-03       3.141620590735e+04 
       8.376739914299e-03       3.157153684856e+04 
       8.486678127766e-03       3.172239585804e+04 
       8.596666846377e-03       3.186885467878e+04 
       8.706704832558e-03       3.201096089429e+04 
       8.816790923377e-03       3.214876913651e+04 
       8.926924026550e-03       3.228233699905e+04 
       9.037103116728e-03       3.241172227313e+04 
       9.147327232045e-03       3.253695721353e+04 
       9.257595470906e-03       3.265810892164e+04 
       9.367906988995e-03       3.277522827270e+04 
       9.478260996488e-03       3.288836628337e+04 
       9.588656755457e-03       3.299756543390e+04 
       9.699093577455e-03       3.310288727356e+04 
       9.809570821253e-03       3.320437100826e+04 
       9.920087890742e-03       3.330206998107e+04 
       1.003064423297e-02       3.339603126503e+04 
       1.014123933630e-02       3.348630573244e+04 
       1.025187272874e-02       3.357293719042e+04 
       1.036254397627e-02       3.365597868866e+04 
       1.047325268145e-02       3.373545691669e+04 
       1.058399848198e-02       3.381144799747e+04 
       1.069478104937e-02       3.388399327830e+04 
       1.080560008783e-02       3.395311690864e+04 
       1.091645533304e-02       3.401887350556e+04 
       1.102734655117e-02       3.408131132633e+04 
       1.113827353786e-02       3.414047090408e+04 
       1.124923611732e-02       3.419639674127e+04 
       1.136023414150e-02       3.424912159453e+04 
       1.147126748927e-02       3.429868593192e+04 
       1.158233606570e-02       3.434516301009e+04 
       1.169343980138e-02       3.438855802624e+04 
       1.180457865178e-02       3.442893129917e+04 
       1.191575259669e-02       3.446632147540e+04 
       1.202696163964e-02       3.450075522708e+04 
       1.213820580743e-02       3.453228888954e+04 
       1.224948514968e-02       3.456095566434e+04 
       1.236079973837e-02       3.458680625337e+04 
       1.237685953032e-02       3.459028718933e+04 
       1.247214966748e-02       3.460984796545e+04 
       1.258353505266e-02       3.463015893655e+04 
       1.269495603087e-02       3.464774439298e+04 
       1.280641276012e-02       3.466266289422e+04 
       1.291790541920e-02       3.467494017294e+04 
       1.302943420746e-02       3.468462142072e+04 
       1.314099934461e-02       3.469173723892e+04 
       1.325260107051e-02       3.469632866216e+04 
       1.336423964509e-02       3.469842626956e+04 
       1.347591534813e-02       3.469806865150e+04 
       1.358762847924e-02       3.469529937918e+04 
       1.369937935772e-02       3.469013077731e+04 
       1.381116832253e-02       3.468262192225e+04 
       1.392299573225e-02       3.467279142261e+04 
       1.403486196504e-02       3.466068292419e+04 
       1.414676741865e-02       3.464631766393e+04 
       1.425871251047e-02       3.462976712563e+04 
       1.437069767751e-02       3.461101443783e+04 
       1.448272337650e-02       3.459010594441e+04 
       1.459479008397e-02       3.456709499289e+04 
       1.470689829629e-02       3.454199387076e+04 
       1.481904852984e-02       3.451485323456e+04 
       1.493124132110e-02       3.448567707533e+04 
       1.504347722680e-02       3.445454511885e+04 
       1.515575682410e-02       3.442142432427e+04 
       1.526808071071e-02       3.438638382076e+04 
       1.538044950514e-02       3.434944451606e+04 
       1.549286384690e-02       3.431065721818e+04 
       1.560532439667e-02       3.427002935044e+04 
       1.571783183662e-02       3.422757437686e+04 
       1.583038687058e-02       3.418338533340e+04 
       1.594299022439e-02       3.413743711976e+04 
       1.605564264613e-02       3.408977091255e+04 
       1.616834490645e-02       3.404041776763e+04 
       1.628109779887e-02       3.398939761810e+04 
       1.639390214014e-02       3.393676087716e+04 
       1.650675877056e-02       3.388251884571e+04 
       1.661966855437e-02       3.382672560784e+04 
       1.673263238013e-02       3.376933869228e+04 
       1.684565116109e-02       3.371045877818e+04 
       1.695872583566e-02       3.365010535511e+04 
       1.707185736779e-02       3.358829266343e+04 
       1.718504674747e-02       3.352501367334e+04 
       1.729829499114e-02       3.346032369605e+04 
       1.741160314223e-02       3.339427874843e+04 
       1.752497227163e-02       3.332685544042e+04 
       1.763840347825e-02       3.325810197421e+04 
       1.775189788949e-02       3.318804159232e+04 
       1.786545666187e-02       3.311669839676e+04 
       1.797908098160e-02       3.304411045028e+04 
       1.809277206515e-02       3.297028835950e+04 
       1.820653115987e-02       3.289527369795e+04 
       1.832035954466e-02       3.281905032873e+04 
       1.843425853064e-02       3.274166724969e+04 
       1.854822946178e-02       3.266312109986e+04 
       1.866227371567e-02       3.258354263316e+04 
       1.877639270420e-02       3.250283297707e+04 
       1.889058787436e-02       3.242105128800e+04 
       1.900486070897e-02       3.233826300343e+04 
       1.911921272753e-02       3.225444765145e+04 
       1.923364548703e-02       3.216964295917e+04 
       1.934816058281e-02       3.208387991686e+04 
       1.946275964942e-02       3.199710943820e+04 
       1.957744436158e-02       3.190942884156e+04 
       1.969221643508e-02       3.182087924320e+04 
       1.980707762778e-02       3.173142438699e+04 
       1.992202974060e-02       3.164114213899e+04 
       2.003707461854e-02       3.154995021064e+04 
       2.015221415178e-02       3.145798997573e+04 
       2.026745027677e-02       3.136517896803e+04 
       2.038278497735e-02       3.127165163813e+04 
       2.049822028594e-02       3.117731638789e+04 
       2.061375828477e-02       3.108225596936e+04 
       2.072940110709e-02       3.098647140181e+04 
       2.084515093849e-02       3.089000054423e+04 
       2.096101001822e-02       3.079283976154e+04 
       2.107698064060e-02       3.069499751818e+04 
       2.119306515638e-02       3.059656469705e+04 
       2.130926597426e-02       3.049745586010e+04 
       2.142558556241e-02       3.039770673687e+04 
       2.154202644997e-02       3.029744596116e+04 
       2.165859122876e-02       3.019657238579e+04 
       2.177528255490e-02       3.009518645654e+04 
       2.189210315054e-02       2.999321776639e+04 
       2.200905580565e-02       2.989077387140e+04 
       2.212614337989e-02       2.978779031154e+04 
       2.224336880449e-02       2.968435499936e+04 
       2.236073508425e-02       2.958038936650e+04 
       2.247824529957e-02       2.947607413837e+04 
       2.259590260856e-02       2.937126653133e+04 
       2.271371024925e-02       2.926606624518e+04 
       2.283167154183e-02       2.916038388644e+04 
       2.294978989100e-02       2.905440114709e+04 
       2.306806878841e-02       2.894800828979e+04 
       2.318651181515e-02       2.884133041858e+04 
       2.330512264439e-02       2.873422971341e+04 
       2.342390504404e-02       2.862680088615e+04 
       2.354286287957e-02       2.851904247882e+04 
       2.366200011688e-02       2.841101557645e+04 
       2.378132082533e-02       2.830274969404e+04 
       2.390082918088e-02       2.819417393830e+04 
       2.402052946923e-02       2.808533439166e+04 
       2.414042608930e-02       2.797626267474e+04 
       2.426052355659e-02       2.786693905105e+04 
       2.438082650687e-02       2.775744484940e+04 
       2.450133969992e-02       2.764764650777e+04 
       2.462206802339e-02       2.753775720106e+04 
       2.474301649691e-02       2.742770176338e+04 
       2.486419027623e-02       2.731739772033e+04 
       2.498559465764e-02       2.720696424508e+04 
       2.510723508253e-02       2.709637519783e+04 
       2.522911714207e-02       2.698568939858e+04 
       2.535124658217e-02       2.687485769587e+04 
       2.547362930863e-02       2.676390143012e+04 
       2.559627139240e-02       2.665287225326e+04 
       2.571917907523e-02       2.654176080609e+04 
       2.584235877539e-02       2.643050075026e+04 
       2.596581709374e-02       2.631917014635e+04 
       2.608956082001e-02       2.620785179277e+04 
       2.621359693938e-02       2.609646918606e+04 
       2.633793263930e-02       2.598502251992e+04 
       2.646257531666e-02       2.587354442093e+04 
       2.658753258525e-02       2.576207787671e+04 
       2.671281228353e-02       2.565056934134e+04 
       2.683842248280e-02       2.553906620740e+04 
       2.696437149571e-02       2.542755824168e+04 
       2.709066788513e-02       2.531600939071e+04 
       2.721732047350e-02       2.520453613754e+04 
       2.734433835256e-02       2.509309534823e+04 
       2.747173089352e-02       2.498168731030e+04 
       2.759950775781e-02       2.487032578646e+04 
       2.772767890822e-02       2.475900837082e+04 
       2.785625462066e-02       2.464767312143e+04 
       2.798524549648e-02       2.453651050656e+04 
       2.811466247535e-02       2.442531117515e+04 
       2.824451684888e-02       2.431422442128e+04 
       2.837482027479e-02       2.420329219829e+04 
       2.850558479194e-02       2.409237542013e+04 
       2.863682283602e-02       2.398158285269e+04 
       2.876854725609e-02       2.387085490869e+04 
       2.890077133202e-02       2.376025916244e+04 
       2.903350879283e-02       2.364975216508e+04 
       2.916677383594e-02       2.353935220913e+04 
       2.930058114758e-02       2.342907102904e+04 
       2.943494592425e-02       2.331885381718e+04 
       2.956988389536e-02       2.320890730731e+04 
       2.970541134711e-02       2.309892973733e+04 
       2.984154514783e-02       2.298915525955e+04 
       2.997830277459e-02       2.287956112621e+04 
       3.011570234153e-02       2.277006885044e+04 
       3.025376262967e-02       2.266064676178e+04 
       3.039250311863e-02       2.255146111475e+04 
       3.053194402011e-02       2.244237959108e+04 
       3.067210631353e-02       2.233348021956e+04 
       3.081301178370e-02       2.222468479338e+04 
       3.095468306095e-02       2.211603378761e+04 
       3.109714366369e-02       2.200757590504e+04 
       3.124041804370e-02       2.189925579296e+04 
       3.138453163433e-02       2.179109832658e+04 
       3.152951090180e-02       2.168311005363e+04 
       3.167538339992e-02       2.157522327356e+04 
       3.182217782843e-02       2.146754952584e+04 
       3.196992409528e-02       2.136000556130e+04 
       3.211865338317e-02       2.125260165161e+04 
       3.226839822072e-02       2.114533139400e+04 
       3.241919255863e-02       2.103829566649e+04 
       3.257107185125e-02       2.093134858005e+04 
       3.272407314408e-02       2.082456472842e+04 
       3.287823516760e-02       2.071786999466e+04 
       3.303359843821e-02       2.061146115134e+04 
       3.319020536659e-02       2.050506638870e+04 
       3.334810037451e-02       2.039880453520e+04 
       3.350733002060e-02       2.029277738013e+04 
       3.366794313606e-02       2.018687343896e+04 
       3.382999097124e-02       2.008108651949e+04 
       3.399352735407e-02       1.997533270942e+04 
       3.415860886157e-02       1.986974554848e+04 
       3.432529500575e-02       1.976433534818e+04 
       3.449364843534e-02       1.965897226913e+04 
       3.466373515488e-02       1.955375394542e+04 
       3.483562476319e-02       1.944861329342e+04 
       3.500939071309e-02       1.934359572781e+04 
       3.518511059478e-02       1.923855832573e+04 
       3.536286644542e-02       1.913365733625e+04 
       3.554274508785e-02       1.902874435935e+04 
       3.572483850181e-02       1.892400999004e+04 
       3.590924423139e-02       1.881930872318e+04 
       3.609606583291e-02       1.871462156053e+04 
       3.628541336829e-02       1.860993374465e+04 
       3.647740394922e-02       1.850526710952e+04 
       3.667216233868e-02       1.840061840671e+04 
       3.686982161695e-02       1.829590512112e+04 
       3.707052392060e-02       1.819119854013e+04 
       3.727442126399e-02       1.808646007799e+04 
       3.748167645451e-02       1.798162247510e+04 
       3.769246411437e-02       1.787669715983e+04 
       3.790697182412e-02       1.777173936867e+04 
       3.812540140511e-02       1.766663030661e+04 
       3.834797036152e-02       1.756137747159e+04 
       3.857491350587e-02       1.745596640776e+04 
       3.880648479604e-02       1.735038145474e+04 
       3.904295941716e-02       1.724450536531e+04 
       3.928463614761e-02       1.713847425937e+04 
       3.953184005601e-02       1.703210779501e+04 
       3.978492558473e-02       1.692549085958e+04 
       4.004428008681e-02       1.681847090440e+04 
       4.031032789653e-02       1.671117231912e+04 
       4.058353503013e-02       1.660332779361e+04 
       4.086441463424e-02       1.649503804316e+04 
       4.115353332438e-02       1.638625582311e+04 
       4.145151858783e-02       1.627686677849e+04 
       4.175906746475e-02       1.616682505334e+04 
       4.207695677096e-02       1.605608515241e+04 
       4.240605518850e-02       1.594452888268e+04 
       4.274733762948e-02       1.583210796833e+04 
       4.310190237925e-02       1.571869796096e+04 
       4.347099165291e-02       1.560418191535e+04 
       4.385601636264e-02       1.548844526129e+04 
       4.425858610119e-02       1.537132278466e+04 
       4.468054561138e-02       1.525268946409e+04 
       4.512401934694e-02       1.513228639268e+04 
       4.559146614893e-02       1.500986698789e+04 
       4.608574657885e-02       1.488515709379e+04 
       4.661020606377e-02       1.475782032985e+04 
       4.716877769811e-02       1.462740577664e+04 
