# dimensionless total lensed [l(l+1)/2pi] C_l's
# for l=2 to 5500, i.e. number of multipoles equal to 5499
#
# -> if you prefer output in CAMB/HealPix/LensPix units/order, set 'format' to 'camb' in input file
# -> if you don't want to see such a header, set 'headers' to 'no' in input file
# -> for CMB lensing (phi), these are C_l^phi-phi for the lensing potential.
#    Remember the conversion factors:
#    C_l^dd (deflection) = l(l+1) C_l^phi-phi
#    C_l^gg (shear/convergence) = 1/4 (l(l+1))^2 C_l^phi-phi
#
# 1:l     2:TT                     3:EE                     4:TE                     5:BB                     6:phiphi                 7:TPhi                   8:Ephi               
    2       1.673256646139e-10       4.358553912920e-15       3.262937864847e-13       1.979424635140e-19       7.215479391877e-09       5.899344842147e-10      -1.833418191303e-12 
    3       1.525630681095e-10       5.254560605497e-15       3.769086255150e-13       3.959846056534e-19       4.499860748770e-09       4.105513256928e-10      -1.339303136338e-12 
    4       1.405638405046e-10       4.221545770793e-15       3.536567770743e-13       6.601932255468e-19       3.136894761728e-09       3.067408051227e-10      -8.211021043069e-13 
    5       1.319037911306e-10       2.611364175549e-15       2.993944535119e-13       9.906940177182e-19       2.342190837856e-09       2.399183732603e-10      -4.043530311440e-13 
    6       1.259094438056e-10       1.389591899429e-15       2.390401294571e-13       1.387638122325e-18       1.828578342252e-09       1.937365440504e-10      -1.168889610426e-13 
    7       1.218580375970e-10       7.732050963169e-16       1.865027744573e-13       1.851198475064e-18       1.473406364344e-09       1.602258212296e-10       4.771194937643e-14 
    8       1.192263689843e-10       5.420379472406e-16       1.473843050137e-13       2.381565744288e-18       1.216204214240e-09       1.350300279228e-10       1.137637336425e-13 
    9       1.176155079893e-10       4.436851142846e-16       1.224458551853e-13       2.978944006370e-18       1.023353027327e-09       1.155773018342e-10       1.130440941847e-13 
   10       1.167633786448e-10       3.662210440888e-16       1.098008240766e-13       3.643546318485e-18       8.744135181420e-10       1.002207712164e-10       7.713608653627e-14 
   11       1.164908587866e-10       3.046837381673e-16       1.063791810721e-13       4.375590349629e-18       7.415510301340e-10       8.821000193166e-11       3.238069341138e-14 
   12       1.166830634911e-10       2.748800835017e-16       1.089687664049e-13       5.175294225781e-18       6.477069617741e-10       7.785089024046e-11      -5.148118251453e-15 
   13       1.171657990508e-10       2.740782209835e-16       1.149009591890e-13       6.042872733831e-18       5.706577337490e-10       6.931621778025e-11      -2.701384578750e-14 
   14       1.179430841253e-10       2.900416938868e-16       1.223848006499e-13       6.978534011751e-18       5.065428629506e-10       6.194101779126e-11      -3.318989994078e-14 
   15       1.189806807419e-10       3.178394088127e-16       1.303396724578e-13       7.982476830247e-18       4.525719396122e-10       5.573047775218e-11      -2.771417422324e-14 
   16       1.201778371980e-10       3.614242645378e-16       1.383547933273e-13       9.054888544591e-18       4.066840584000e-10       5.040373690193e-11      -1.686126650011e-14 
   17       1.215153697100e-10       4.253612946755e-16       1.465913807763e-13       1.019594376580e-17       3.673217572869e-10       4.578813160541e-11      -6.320524890902e-15 
   18       1.230074185135e-10       5.097512975138e-16       1.552513662323e-13       1.140580342290e-17       3.331620945104e-10       4.177889073271e-11       1.316666301051e-16 
   19       1.246502361548e-10       6.135628462965e-16       1.644896425725e-13       1.268461662393e-17       3.036584661559e-10       3.830576168531e-11       1.714575979044e-15 
   20       1.263727247100e-10       7.351434733442e-16       1.743722387713e-13       1.403251768081e-17       2.776784297185e-10       3.521777264858e-11      -9.687668110820e-16 
   21       1.281788557340e-10       8.744680319441e-16       1.846303800767e-13       1.544963260058e-17       2.548135268807e-10       3.246215531359e-11      -6.022122574228e-15 
   22       1.300646722107e-10       1.031797822924e-15       1.948130694694e-13       1.693607563634e-17       2.345149890186e-10       2.997958870320e-11      -1.084363154759e-14 
   23       1.320361855338e-10       1.207255097146e-15       2.045705227480e-13       1.849195714258e-17       2.165032338670e-10       2.776895830651e-11      -1.407087552926e-14 
   24       1.340790650108e-10       1.401000455817e-15       2.135648004572e-13       2.011738009005e-17       2.003618215998e-10       2.581520741780e-11      -1.486506371768e-14 
   25       1.361887067648e-10       1.614416407189e-15       2.215887610790e-13       2.181244927959e-17       1.859000935985e-10       2.407207444284e-11      -1.354582667552e-14 
   26       1.383486337259e-10       1.849366556228e-15       2.285079451414e-13       2.357726723699e-17       1.728553625112e-10       2.246980281012e-11      -1.100495308030e-14 
   27       1.405618536699e-10       2.107613403390e-15       2.343695590997e-13       2.541194215817e-17       1.610707453240e-10       2.099967869420e-11      -8.332283681557e-15 
   28       1.428267543129e-10       2.390858116531e-15       2.392883260566e-13       2.731658501575e-17       1.503428185457e-10       1.966142597921e-11      -6.640970244469e-15 
   29       1.451488391728e-10       2.700301030791e-15       2.432911826819e-13       2.929131862779e-17       1.406163125395e-10       1.845236783211e-11      -6.072099031289e-15 
   30       1.475221765935e-10       3.036938238192e-15       2.463916110374e-13       3.133627155809e-17       1.317861905277e-10       1.735679830063e-11      -6.405901238011e-15 
   31       1.499298531519e-10       3.401692638138e-15       2.485919512715e-13       3.345157737921e-17       1.236716892136e-10       1.634935503305e-11      -7.321393220973e-15 
   32       1.523754189357e-10       3.795451819184e-15       2.497817094359e-13       3.563738031005e-17       1.162306038753e-10       1.542456006948e-11      -8.427922974956e-15 
   33       1.548604944581e-10       4.219030668988e-15       2.497985105484e-13       3.789383295977e-17       1.094101272507e-10       1.457642837300e-11      -9.229895231084e-15 
   34       1.573792702207e-10       4.673222019038e-15       2.484777555670e-13       4.022109392363e-17       1.031145560369e-10       1.379331247044e-11      -9.268985495936e-15 
   35       1.599324551480e-10       5.159033628951e-15       2.457416959098e-13       4.261932174595e-17       9.731128386377e-11       1.306972023697e-11      -8.677196072822e-15 
   36       1.625163879495e-10       5.677529602227e-15       2.415409496129e-13       4.508867994424e-17       9.195327098993e-11       1.239751156352e-11      -7.822295616357e-15 
   37       1.651237403951e-10       6.229702969118e-15       2.358382703237e-13       4.762933260600e-17       8.697026559013e-11       1.176592096300e-11      -7.085113002023e-15 
   38       1.677618507939e-10       6.816255796122e-15       2.286323182468e-13       5.024142175972e-17       8.234918300954e-11       1.117427591004e-11      -6.571433968662e-15 
   39       1.704393172795e-10       7.437738833895e-15       2.199428987455e-13       5.292508292393e-17       7.807523545901e-11       1.062286300890e-11      -6.308677074389e-15 
   40       1.731604400456e-10       8.094602255845e-15       2.098057295069e-13       5.568045121522e-17       7.410749637290e-11       1.010919792826e-11      -6.322689832387e-15 
   41       1.759253093130e-10       8.787294993221e-15       1.982510588062e-13       5.850765137152e-17       7.039310787450e-11       9.629174228320e-12      -6.618401279377e-15 
   42       1.787313273915e-10       9.516616844467e-15       1.852290425066e-13       6.140676383565e-17       6.692094289498e-11       9.181570581076e-12      -7.114873545815e-15 
   43       1.815713252903e-10       1.028347033782e-14       1.706615496585e-13       6.437784768705e-17       6.368157686869e-11       8.764583030653e-12      -7.688639178552e-15 
   44       1.844325489832e-10       1.108876587979e-14       1.544616818510e-13       6.742094905608e-17       6.065118528239e-11       8.374393830244e-12      -8.189385379996e-15 
   45       1.873018623590e-10       1.193331588963e-14       1.365469573845e-13       7.053609412869e-17       5.780000444179e-11       8.006452968556e-12      -8.481153577096e-15 
   46       1.901843135955e-10       1.281747731920e-14       1.168851051073e-13       7.372326722570e-17       5.512342808651e-11       7.660151293642e-12      -8.584353251302e-15 
   47       1.930893234610e-10       1.374140380694e-14       9.546084870067e-14       7.698242504466e-17       5.261825988802e-11       7.335276177417e-12      -8.573514144415e-15 
   48       1.960253586773e-10       1.470513807000e-14       7.226339636147e-14       8.031350142489e-17       5.027333850443e-11       7.030620663685e-12      -8.539050144513e-15 
   49       1.989997905974e-10       1.570860666396e-14       4.728658378404e-14       8.371640632112e-17       4.806894586441e-11       6.743908633846e-12      -8.588141420786e-15 
   50       2.020178800813e-10       1.675172915858e-14       2.052170833079e-14       8.719103042254e-17       4.598272333221e-11       6.472513242048e-12      -8.814563073823e-15 
   51       2.050797351499e-10       1.783479275840e-14      -8.066593238856e-15       9.073726286928e-17       4.401068615649e-11       6.216015735451e-12      -9.196469701731e-15 
   52       2.081822832364e-10       1.895817031060e-14      -3.852252306254e-14       9.435497657071e-17       4.215089033863e-11       5.974211841139e-12      -9.672390434089e-15 
   53       2.113198946984e-10       2.012221491724e-14      -7.089258183384e-14       9.804402223769e-17       4.039714460666e-11       5.746342587759e-12      -1.016929199915e-14 
   54       2.144842003754e-10       2.132726007932e-14      -1.052257697646e-13       1.018042276218e-16       3.873872495246e-11       5.531056801555e-12      -1.060199951823e-14 
   55       2.176669653356e-10       2.257352871738e-14      -1.415614830403e-13       1.056354196048e-16       3.716362791725e-11       5.326810998487e-12      -1.089345926183e-14 
   56       2.208699640742e-10       2.386083343666e-14      -1.798892217678e-13       1.095374986358e-16       3.566993082796e-11       5.133271311001e-12      -1.104274844536e-14 
   57       2.240972389644e-10       2.518880205373e-14      -2.201792246182e-13       1.135103814535e-16       3.425675367689e-11       4.950194138830e-12      -1.107294600259e-14 
   58       2.273521970130e-10       2.655695886407e-14      -2.623936239962e-13       1.175539799828e-16       3.292082325372e-11       4.776999248910e-12      -1.101199862064e-14 
   59       2.306375464906e-10       2.796472123585e-14      -3.064861676064e-13       1.216682014645e-16       3.165632555597e-11       4.612749312821e-12      -1.089295355879e-14 
   60       2.339552335611e-10       2.941139620377e-14      -3.524019400187e-13       1.258529485845e-16       3.045475819953e-11       4.456129444234e-12      -1.075419146742e-14 
   61       2.373066180123e-10       3.089624494458e-14      -4.000899993322e-13       1.301081456262e-16       2.930728098557e-11       4.305812771212e-12      -1.063091165756e-14 
   62       2.406931899000e-10       3.241870082130e-14      -4.495452316007e-13       1.344338234911e-16       2.821271803460e-11       4.161699333282e-12      -1.052682783271e-14 
   63       2.441159020431e-10       3.397819445975e-14      -5.007754397507e-13       1.388300540787e-16       2.717109809138e-11       4.023920222494e-12      -1.043650338820e-14 
   64       2.475748904395e-10       3.557408895799e-14      -5.537893862386e-13       1.432969268844e-16       2.618124789389e-11       3.892468035926e-12      -1.035349449406e-14 
   65       2.510694184826e-10       3.720567863393e-14      -6.085969244031e-13       1.478345499548e-16       2.524072384844e-11       3.767188661723e-12      -1.027030536080e-14 
   66       2.545978211775e-10       3.887218777305e-14      -6.652091298171e-13       1.524430508430e-16       2.434574370474e-11       3.647773065133e-12      -1.017834350514e-14 
   67       2.581574493579e-10       4.057276937592e-14      -7.236384316401e-13       1.571225775635e-16       2.349111823103e-11       3.533749074546e-12      -1.006787501578e-14 
   68       2.617457138917e-10       4.230650939458e-14      -7.838907648190e-13       1.618732914158e-16       2.267163045974e-11       3.424615280872e-12      -9.930754679304e-15 
   69       2.653635886859e-10       4.407244323746e-14      -8.459398865386e-13       1.666953416294e-16       2.188665067914e-11       3.320292602044e-12      -9.769358734803e-15 
   70       2.690127205325e-10       4.586954037435e-14      -9.097480676633e-13       1.715888872737e-16       2.113633811520e-11       3.220749881856e-12      -9.589390084267e-15 
   71       2.726943647664e-10       4.769669805158e-14      -9.752735400124e-13       1.765541056688e-16       2.042024535854e-11       3.125865375154e-12      -9.397289345098e-15 
   72       2.764093576147e-10       4.955274018005e-14      -1.042470423642e-12       1.815911931333e-16       1.973728706172e-11       3.035422168479e-12      -9.200261084151e-15 
   73       2.801580885463e-10       5.143641622323e-14      -1.111288654126e-12       1.867003657313e-16       1.908570863670e-11       2.949103600720e-12      -9.006300051778e-15 
   74       2.839404726207e-10       5.334640008519e-14      -1.181673909839e-12       1.918818600194e-16       1.846305495212e-11       2.866488683761e-12      -8.824217415867e-15 
   75       2.877559228371e-10       5.528128899857e-14      -1.253567539238e-12       1.971359337947e-16       1.786613903072e-11       2.787047523134e-12      -8.663666995884e-15 
   76       2.916037767511e-10       5.723963302209e-14      -1.326911386156e-12       2.024628345221e-16       1.729182933442e-11       2.710272178706e-12      -8.532840809507e-15 
   77       2.954847272600e-10       5.922003220090e-14      -1.401663442278e-12       2.078626963221e-16       1.673964655914e-11       2.636106919145e-12      -8.431012573412e-15 
   78       2.993996037040e-10       6.122105518596e-14      -1.477784930117e-12       2.133356254690e-16       1.620958570754e-11       2.564588471200e-12      -8.354675818541e-15 
   79       3.033489227067e-10       6.324120971987e-14      -1.555235685490e-12       2.188817311262e-16       1.570132522874e-11       2.495715767170e-12      -8.299732740797e-15 
   80       3.073328698394e-10       6.527894215257e-14      -1.633974185235e-12       2.245011254309e-16       1.521421250149e-11       2.429448142867e-12      -8.261472642445e-15 
   81       3.113512812853e-10       6.733263695702e-14      -1.713957574936e-12       2.301939235786e-16       1.474724931732e-11       2.365703535571e-12      -8.234550373523e-15 
   82       3.154036255040e-10       6.940061624490e-14      -1.795141696635e-12       2.359602439076e-16       1.429907736375e-11       2.304356681987e-12      -8.212964773252e-15 
   83       3.194889848957e-10       7.148113928224e-14      -1.877481116559e-12       2.418002079835e-16       1.386796370743e-11       2.245237316202e-12      -8.190037111442e-15 
   84       3.236064219515e-10       7.357242791554e-14      -1.960927893551e-12       2.477139534180e-16       1.345221964681e-11       2.188173887041e-12      -8.159761183101e-15 
   85       3.277561876130e-10       7.567274875368e-14      -2.045427589075e-12       2.537016745820e-16       1.305156885035e-11       2.133136984576e-12      -8.121157976720e-15 
   86       3.319386805468e-10       7.778034378539e-14      -2.130922643503e-12       2.597635888283e-16       1.266598046528e-11       2.080116497290e-12      -8.074606747663e-15 
   87       3.361540687707e-10       7.989340563209e-14      -2.217353583046e-12       2.658999246514e-16       1.229524878730e-11       2.029077185006e-12      -8.020539023537e-15 
   88       3.404022777798e-10       8.201007749901e-14      -2.304659026309e-12       2.721109219861e-16       1.193898602727e-11       1.979957641878e-12      -7.959440098597e-15 
   89       3.446829786725e-10       8.412845312638e-14      -2.392775690845e-12       2.783968325061e-16       1.159661507788e-11       1.932669259377e-12      -7.891850528145e-15 
   90       3.489955762775e-10       8.624657674056e-14      -2.481638399713e-12       2.847579199222e-16       1.126736228039e-11       1.887095189283e-12      -7.818367622939e-15 
   91       3.533391972792e-10       8.836244300518e-14      -2.571180088031e-12       2.911944602815e-16       1.095025019126e-11       1.843089306673e-12      -7.739646943592e-15 
   92       3.577126783445e-10       9.047399697232e-14      -2.661331809529e-12       2.977067422653e-16       1.064409034889e-11       1.800475172912e-12      -7.656403794976e-15 
   93       3.621148995773e-10       9.257917828223e-14      -2.752023768735e-12       3.042951037173e-16       1.034776376254e-11       1.759088634822e-12      -7.569396574115e-15 
   94       3.665458680414e-10       9.467606147301e-14      -2.843188580851e-12       3.109600468633e-16       1.006112634642e-11       1.718915203528e-12      -7.479370703087e-15 
   95       3.710057760041e-10       9.676273678140e-14      -2.934758516566e-12       3.177021410534e-16       9.784226922936e-12       1.679971516212e-12      -7.387108987387e-15 
   96       3.754946630907e-10       9.883726832550e-14      -3.026664540465e-12       3.245219888611e-16       9.517028394329e-12       1.642263108785e-12      -7.293450239714e-15 
   97       3.800124091508e-10       1.008976946633e-13      -3.118836331668e-12       3.314202268802e-16       9.259404458862e-12       1.605783977857e-12      -7.199290525273e-15 
   98       3.845587271250e-10       1.029420293514e-13      -3.211202304463e-12       3.383975265197e-16       9.011136327042e-12       1.570516142715e-12      -7.105584407088e-15 
   99       3.891331559109e-10       1.049682615032e-13      -3.303689628937e-12       3.454545948000e-16       8.771909437828e-12       1.536429207304e-12      -7.013346191309e-15 
  100       3.937350532303e-10       1.069743563477e-13      -3.396224251613e-12       3.525921751492e-16       8.541310174837e-12       1.503479922194e-12      -6.923651172521e-15 
  101       3.983635884955e-10       1.089582557882e-13      -3.488730916084e-12       3.598110481981e-16       8.318822582549e-12       1.471611746564e-12      -6.837636879052e-15 
  102       4.030177356755e-10       1.109178789604e-13      -3.581133183642e-12       3.671120325768e-16       8.103825082524e-12       1.440754410171e-12      -6.756504318286e-15 
  103       4.076962661630e-10       1.128511227912e-13      -3.673353453916e-12       3.744959857100e-16       7.895587189603e-12       1.410823475334e-12      -6.681519221968e-15 
  104       4.123979821576e-10       1.147559137557e-13      -3.765313745642e-12       3.819637429661e-16       7.693434277034e-12       1.381739768614e-12      -6.613692004535e-15 
  105       4.171224680854e-10       1.166303699069e-13      -3.856938114648e-12       3.895159240269e-16       7.497274293105e-12       1.353491608823e-12      -6.552765718733e-15 
  106       4.218694278590e-10       1.184726618772e-13      -3.948150602493e-12       3.971531017232e-16       7.307136405559e-12       1.326080207642e-12      -6.498093072731e-15 
  107       4.266384489885e-10       1.202809647419e-13      -4.038874534129e-12       4.048758614630e-16       7.123007886658e-12       1.299500333540e-12      -6.448943251123e-15 
