# Matter power spectrum P(k) at redshift z=0
# for k=9.0192e-06 to 20.5861 h/Mpc,
# number of wavenumbers equal to 855
#    1:k (h/Mpc)              2:P (Mpc/h)^3        
       9.019201454174e-06       7.372393987981e+01 
       2.013437232318e-05       1.599052721317e+02 
       3.127867019624e-05       2.445116942763e+02 
       4.247440903451e-05       3.283945465573e+02 
       5.374417827534e-05       4.120142143422e+02 
       6.511099296095e-05       4.957001797081e+02 
       7.659844748270e-05       5.797232228115e+02 
       8.823087449441e-05       6.643244226727e+02 
       1.000335105604e-04       7.497295285295e+02 
       1.120326701213e-04       8.361572064392e+02 
       1.242559293744e-04       9.238243889686e+02 
       1.367323216761e-04       1.012950106241e+03 
       1.494925460608e-04       1.103758478413e+03 
       1.625691904350e-04       1.196481243311e+03 
       1.759969709228e-04       1.291360017793e+03 
       1.898129886899e-04       1.388648407468e+03 
       2.040570053356e-04       1.488614046111e+03 
       2.187717375774e-04       1.591540602904e+03 
       2.340031714211e-04       1.697729803055e+03 
       2.498008952548e-04       1.807503433485e+03 
       2.662184502690e-04       1.921205362921e+03 
       2.833136952002e-04       2.039203531147e+03 
       3.011491805457e-04       2.161891892497e+03 
       3.197925249974e-04       2.289692229375e+03 
       3.393167837950e-04       2.423055784602e+03 
       3.598007949172e-04       2.562464591400e+03 
       3.813294844476e-04       2.708432366118e+03 
       4.039941070762e-04       2.861504792882e+03 
       4.278923916126e-04       3.022258988218e+03 
       4.531285548632e-04       3.191301886156e+03 
       4.798131407256e-04       3.369267259441e+03 
       5.080626356595e-04       3.556811038818e+03 
       5.379988079316e-04       3.754604612255e+03 
       5.697477177126e-04       3.963325743052e+03 
       6.034383500518e-04       4.183646884307e+03 
       6.392008349528e-04       4.416220694214e+03 
       6.771642399587e-04       4.661662848792e+03 
       7.174539518240e-04       4.920532458242e+03 
       7.601887045194e-04       5.193310772695e+03 
       8.054773583407e-04       5.480379306986e+03 
       8.534155840436e-04       5.781998717086e+03 
       9.040826490048e-04       6.098290378987e+03 
       9.575385302735e-04       6.429221832095e+03 
       1.013821583378e-03       6.774597721284e+03 
       1.072946970199e-03       7.134057558497e+03 
       1.134905993731e-03       7.507077967707e+03 
       1.199666408215e-03       7.892981824924e+03 
       1.237685953032e-03       8.117653880226e+03 
       1.267173681764e-03       8.290952644817e+03 
       1.337353100265e-03       8.700052752779e+03 
       1.410112530429e-03       9.119246814498e+03 
       1.485345616560e-03       9.547429154188e+03 
       1.562935173802e-03       9.983453230088e+03 
       1.642756557639e-03       1.042616037614e+04 
       1.724680827698e-03       1.087440352200e+04 
       1.808577573914e-03       1.132706536404e+04 
       1.894317325288e-03       1.178307075823e+04 
       1.981773508839e-03       1.224139587830e+04 
       2.070823964317e-03       1.270107749151e+04 
       2.161352047312e-03       1.316122013067e+04 
       2.253247369975e-03       1.362100271981e+04 
       2.346406236227e-03       1.407967846767e+04 
       2.440731829417e-03       1.453656861795e+04 
       2.536134206954e-03       1.499106086767e+04 
       2.632530150392e-03       1.544260283998e+04 
       2.729842912233e-03       1.589070122996e+04 
       2.828001893341e-03       1.633492026595e+04 
       2.926942277899e-03       1.677487834824e+04 
       3.026604646696e-03       1.721023892651e+04 
       3.126934584318e-03       1.764070795690e+04 
       3.227882291507e-03       1.806602514464e+04 
       3.329402210537e-03       1.848597008552e+04 
       3.431452668786e-03       1.890035268558e+04 
       3.533995543625e-03       1.930901480977e+04 
       3.636995950267e-03       1.971182291412e+04 
       3.740421953082e-03       2.010866381648e+04 
       3.844244300126e-03       2.049944598400e+04 
       3.948436180119e-03       2.088409268566e+04 
       4.052973000729e-03       2.126255375867e+04 
       4.157832186856e-03       2.163478203720e+04 
       4.262992997494e-03       2.200074941637e+04 
       4.368436359704e-03       2.236044143680e+04 
       4.474144718296e-03       2.271384372988e+04 
       4.580101899811e-03       2.306095543801e+04 
       4.686292989519e-03       2.340179145025e+04 
       4.792704220213e-03       2.373636532526e+04 
       4.899322871658e-03       2.406469742761e+04 
       5.006137179679e-03       2.438682039324e+04 
       5.113136253919e-03       2.470275927631e+04 
       5.220310003429e-03       2.501255996712e+04 
       5.327649069297e-03       2.531625696478e+04 
       5.435144763619e-03       2.561389436784e+04 
       5.542789014175e-03       2.590552752907e+04 
       5.650574314243e-03       2.619119111038e+04 
       5.758493677037e-03       2.647095401489e+04 
       5.866540594312e-03       2.674485224185e+04 
       5.974708998718e-03       2.701295064768e+04 
       6.082993229540e-03       2.727530211884e+04 
       6.191388001486e-03       2.753196471765e+04 
       6.299888376236e-03       2.778298438612e+04 
       6.408489736469e-03       2.802843734425e+04 
       6.517187762150e-03       2.826838195289e+04 
       6.625978408838e-03       2.850286596262e+04 
       6.734857887851e-03       2.873195179918e+04 
       6.843822648090e-03       2.895570034528e+04 
       6.952869359376e-03       2.917417714113e+04 
       7.061994897172e-03       2.938743113303e+04 
       7.171196328541e-03       2.959554080565e+04 
       7.280470899244e-03       2.979855122869e+04 
       7.389816021878e-03       2.999656367941e+04 
       7.499229264944e-03       3.018958892327e+04 
       7.608708342784e-03       3.037764617033e+04 
       7.718251106291e-03       3.056081607072e+04 
       7.827855534349e-03       3.073920278730e+04 
       7.937519725913e-03       3.091288817581e+04 
       8.047241892697e-03       3.108190782553e+04 
       8.157020352409e-03       3.124628213002e+04 
       8.266853522487e-03       3.140606018204e+04 
       8.376739914299e-03       3.156132278581e+04 
       8.486678127766e-03       3.171213126120e+04 
       8.596666846377e-03       3.185855557976e+04 
       8.706704832558e-03       3.200062505047e+04 
       8.816790923377e-03       3.213838350992e+04 
       8.926924026550e-03       3.227189655592e+04 
       9.037103116728e-03       3.240123632545e+04 
       9.147327232045e-03       3.252643773256e+04 
       9.257595470906e-03       3.264755734121e+04 
       9.367906988995e-03       3.276463682292e+04 
       9.478260996488e-03       3.287773028316e+04 
       9.588656755457e-03       3.298689024857e+04 
       9.699093577455e-03       3.309218216329e+04 
       9.809570821253e-03       3.319363904297e+04 
       9.920087890742e-03       3.329130689851e+04 
       1.003064423297e-02       3.338523367287e+04 
       1.014123933630e-02       3.347547736522e+04 
       1.025187272874e-02       3.356208540688e+04 
       1.036254397627e-02       3.364510614999e+04 
       1.047325268145e-02       3.372455888668e+04 
       1.058399848198e-02       3.380051791401e+04 
       1.069478104937e-02       3.387302934213e+04 
       1.080560008783e-02       3.394212255534e+04 
       1.091645533304e-02       3.400785334750e+04 
       1.102734655117e-02       3.407026921049e+04 
       1.113827353786e-02       3.412941198953e+04 
       1.124923611732e-02       3.418532847727e+04 
       1.136023414150e-02       3.423804934489e+04 
       1.147126748927e-02       3.428760690864e+04 
       1.158233606570e-02       3.433406649344e+04 
       1.169343980138e-02       3.437743403839e+04 
       1.180457865178e-02       3.441778008144e+04 
       1.191575259669e-02       3.445515426479e+04 
       1.202696163964e-02       3.448958520527e+04 
       1.213820580743e-02       3.452112090545e+04 
       1.224948514968e-02       3.454978405004e+04 
       1.236079973837e-02       3.457562168075e+04 
       1.237685953032e-02       3.457910020807e+04 
       1.247214966748e-02       3.459864623220e+04 
       1.258353505266e-02       3.461894409024e+04 
       1.269495603087e-02       3.463652485137e+04 
       1.280641276012e-02       3.465144485548e+04 
       1.291790541920e-02       3.466372375954e+04 
       1.302943420746e-02       3.467340187654e+04 
       1.314099934461e-02       3.468050976146e+04 
       1.325260107051e-02       3.468509304591e+04 
       1.336423964509e-02       3.468718767712e+04 
       1.347591534813e-02       3.468683366620e+04 
       1.358762847924e-02       3.468407067084e+04 
       1.369937935772e-02       3.467890553120e+04 
       1.381116832253e-02       3.467139592570e+04 
       1.392299573225e-02       3.466156488055e+04 
       1.403486196504e-02       3.464946161549e+04 
       1.414676741865e-02       3.463510771744e+04 
       1.425871251047e-02       3.461856874822e+04 
       1.437069767751e-02       3.459982161679e+04 
       1.448272337650e-02       3.457891267792e+04 
       1.459479008397e-02       3.455590144276e+04 
       1.470689829629e-02       3.453080591786e+04 
       1.481904852984e-02       3.450367644207e+04 
       1.493124132110e-02       3.447451227816e+04 
       1.504347722680e-02       3.444339025583e+04 
       1.515575682410e-02       3.441027943389e+04 
       1.526808071071e-02       3.437525232063e+04 
       1.538044950514e-02       3.433832912110e+04 
       1.549286384690e-02       3.429955585480e+04 
       1.560532439667e-02       3.425893686956e+04 
       1.571783183662e-02       3.421648870493e+04 
       1.583038687058e-02       3.417231094580e+04 
       1.594299022439e-02       3.412638152686e+04 
       1.605564264613e-02       3.407873770940e+04 
       1.616834490645e-02       3.402940386891e+04 
       1.628109779887e-02       3.397839740087e+04 
       1.639390214014e-02       3.392577234802e+04 
       1.650675877056e-02       3.387154532614e+04 
       1.661966855437e-02       3.381577193518e+04 
       1.673263238013e-02       3.375840687559e+04 
       1.684565116109e-02       3.369954745607e+04 
       1.695872583566e-02       3.363921256042e+04 
       1.707185736779e-02       3.357741795040e+04 
       1.718504674747e-02       3.351415773437e+04 
       1.729829499114e-02       3.344948714127e+04 
       1.741160314223e-02       3.338346222426e+04 
       1.752497227163e-02       3.331606056205e+04 
       1.763840347825e-02       3.324733096473e+04 
       1.775189788949e-02       3.317729554244e+04 
       1.786545666187e-02       3.310597637813e+04 
       1.797908098160e-02       3.303341104521e+04 
       1.809277206515e-02       3.295961196920e+04 
       1.820653115987e-02       3.288462257312e+04 
       1.832035954466e-02       3.280842599026e+04 
       1.843425853064e-02       3.273106836017e+04 
       1.854822946178e-02       3.265254477012e+04 
       1.866227371567e-02       3.257298795934e+04 
       1.877639270420e-02       3.249230289912e+04 
       1.889058787436e-02       3.241055025765e+04 
       1.900486070897e-02       3.232779297474e+04 
       1.911921272753e-02       3.224400668584e+04 
       1.923364548703e-02       3.215922774099e+04 
       1.934816058281e-02       3.207348928959e+04 
       1.946275964942e-02       3.198674524495e+04 
       1.957744436158e-02       3.189909362054e+04 
       1.969221643508e-02       3.181057388070e+04 
       1.980707762778e-02       3.172114820292e+04 
       1.992202974060e-02       3.163089468274e+04 
       2.003707461854e-02       3.153973234436e+04 
       2.015221415178e-02       3.144780285938e+04 
       2.026745027677e-02       3.135502267594e+04 
       2.038278497735e-02       3.126152513658e+04 
       2.049822028594e-02       3.116721916668e+04 
       2.061375828477e-02       3.107218911219e+04 
       2.072940110709e-02       3.097643683862e+04 
       2.084515093849e-02       3.087999913367e+04 
       2.096101001822e-02       3.078287037627e+04 
       2.107698064060e-02       3.068505815597e+04 
       2.119306515638e-02       3.058665450073e+04 
       2.130926597426e-02       3.048757610934e+04 
       2.142558556241e-02       3.038785977858e+04 
       2.154202644997e-02       3.028763328164e+04 
       2.165859122876e-02       3.018679374642e+04 
       2.177528255490e-02       3.008544059738e+04 
       2.189210315054e-02       2.998350400327e+04 
       2.200905580565e-02       2.988109278269e+04 
       2.212614337989e-02       2.977814309840e+04 
       2.224336880449e-02       2.967474214516e+04 
       2.236073508425e-02       2.957081020859e+04 
       2.247824529957e-02       2.946652762644e+04 
       2.259590260856e-02       2.936175260977e+04 
       2.271371024925e-02       2.925658613084e+04 
       2.283167154183e-02       2.915093916202e+04 
       2.294978989100e-02       2.904499234619e+04 
       2.306806878841e-02       2.893863461370e+04 
       2.318651181515e-02       2.883199053718e+04 
       2.330512264439e-02       2.872492305132e+04 
       2.342390504404e-02       2.861752795739e+04 
       2.354286287957e-02       2.850980434425e+04 
       2.366200011688e-02       2.840181299144e+04 
       2.378132082533e-02       2.829358276291e+04 
       2.390082918088e-02       2.818504234588e+04 
       2.402052946923e-02       2.807623774687e+04 
       2.414042608930e-02       2.796720080937e+04 
       2.426052355659e-02       2.785791220440e+04 
       2.438082650687e-02       2.774845361432e+04 
       2.450133969992e-02       2.763869156980e+04 
       2.462206802339e-02       2.752883872526e+04 
       2.474301649691e-02       2.741881928567e+04 
       2.486419027623e-02       2.730855054347e+04 
       2.498559465764e-02       2.719815201516e+04 
       2.510723508253e-02       2.708759816989e+04 
       2.522911714207e-02       2.697694803153e+04 
       2.535124658217e-02       2.686615226153e+04 
       2.547362930863e-02       2.675523203019e+04 
       2.559627139240e-02       2.664423908625e+04 
       2.571917907523e-02       2.653316411111e+04 
       2.584235877539e-02       2.642194040827e+04 
       2.596581709374e-02       2.631064557019e+04 
       2.608956082001e-02       2.619936254087e+04 
       2.621359693938e-02       2.608801559078e+04 
       2.633793263930e-02       2.597660532969e+04 
       2.646257531666e-02       2.586516386239e+04 
       2.658753258525e-02       2.575373339319e+04 
       2.671281228353e-02       2.564226049317e+04 
       2.683842248280e-02       2.553079345793e+04 
       2.696437149571e-02       2.541932245977e+04 
       2.709066788513e-02       2.530781055466e+04 
       2.721732047350e-02       2.519637303544e+04 
       2.734433835256e-02       2.508496700770e+04 
       2.747173089352e-02       2.497359426541e+04 
       2.759950775781e-02       2.486226945689e+04 
       2.772767890822e-02       2.475098924627e+04 
       2.785625462066e-02       2.463969014870e+04 
       2.798524549648e-02       2.452856241158e+04 
       2.811466247535e-02       2.441739814804e+04 
       2.824451684888e-02       2.430634769108e+04 
       2.837482027479e-02       2.419545246517e+04 
       2.850558479194e-02       2.408457220324e+04 
       2.863682283602e-02       2.397381528876e+04 
       2.876854725609e-02       2.386312278066e+04 
       2.890077133202e-02       2.375256267879e+04 
       2.903350879283e-02       2.364209134354e+04 
       2.916677383594e-02       2.353172690499e+04 
       2.930058114758e-02       2.342148141648e+04 
       2.943494592425e-02       2.331130028941e+04 
       2.956988389536e-02       2.320138977484e+04 
       2.970541134711e-02       2.309144773517e+04 
       2.984154514783e-02       2.298170841653e+04 
       2.997830277459e-02       2.287214956321e+04 
       3.011570234153e-02       2.276269275797e+04 
       3.025376262967e-02       2.265330603516e+04 
       3.039250311863e-02       2.254415559917e+04 
       3.053194402011e-02       2.243510947801e+04 
       3.067210631353e-02       2.232624567175e+04 
       3.081301178370e-02       2.221748565577e+04 
       3.095468306095e-02       2.210886979615e+04 
       3.109714366369e-02       2.200044701362e+04 
       3.124041804370e-02       2.189216201141e+04 
       3.138453163433e-02       2.178403946116e+04 
       3.152951090180e-02       2.167608600013e+04 
       3.167538339992e-02       2.156823424891e+04 
       3.182217782843e-02       2.146059555001e+04 
       3.196992409528e-02       2.135308620006e+04 
       3.211865338317e-02       2.124571661055e+04 
       3.226839822072e-02       2.113848113331e+04 
       3.241919255863e-02       2.103148074097e+04 
       3.257107185125e-02       2.092456871288e+04 
       3.272407314408e-02       2.081781901880e+04 
       3.287823516760e-02       2.071115816426e+04 
       3.303359843821e-02       2.060478375225e+04 
       3.319020536659e-02       2.049842400112e+04 
       3.334810037451e-02       2.039219692156e+04 
       3.350733002060e-02       2.028620393483e+04 
       3.366794313606e-02       2.018033404266e+04 
       3.382999097124e-02       2.007458144462e+04 
       3.399352735407e-02       1.996886195320e+04 
       3.415860886157e-02       1.986330872507e+04 
       3.432529500575e-02       1.975793245826e+04 
       3.449364843534e-02       1.965260375041e+04 
       3.466373515488e-02       1.954741972861e+04 
       3.483562476319e-02       1.944231294369e+04 
       3.500939071309e-02       1.933732933425e+04 
       3.518511059478e-02       1.923232621606e+04 
       3.536286644542e-02       1.912745916811e+04 
       3.554274508785e-02       1.902257994630e+04 
       3.572483850181e-02       1.891787961315e+04 
       3.590924423139e-02       1.881321222943e+04 
       3.609606583291e-02       1.870855867513e+04 
       3.628541336829e-02       1.860390502896e+04 
       3.647740394922e-02       1.849927265073e+04 
       3.667216233868e-02       1.839465739614e+04 
       3.686982161695e-02       1.828997768119e+04 
       3.707052392060e-02       1.818530533806e+04 
       3.727442126399e-02       1.808060105426e+04 
       3.748167645451e-02       1.797579741686e+04 
       3.769246411437e-02       1.787090591041e+04 
       3.790697182412e-02       1.776598204662e+04 
       3.812540140511e-02       1.766090720942e+04 
       3.834797036152e-02       1.755568820528e+04 
       3.857491350587e-02       1.745031128366e+04 
       3.880648479604e-02       1.734476082792e+04 
       3.904295941716e-02       1.723891872518e+04 
       3.928463614761e-02       1.713292219525e+04 
       3.953184005601e-02       1.702659019762e+04 
       3.978492558473e-02       1.692000751119e+04 
       4.004428008681e-02       1.681302254625e+04 
       4.031032789653e-02       1.670575863964e+04 
       4.058353503013e-02       1.659794900195e+04 
       4.086441463424e-02       1.648969404562e+04 
       4.115353332438e-02       1.638094738928e+04 
       4.145151858783e-02       1.627159376229e+04 
       4.175906746475e-02       1.616158754866e+04 
       4.207695677096e-02       1.605088368294e+04 
       4.240605518850e-02       1.593936329778e+04 
       4.274733762948e-02       1.582697899131e+04 
       4.310190237925e-02       1.571360557262e+04 
       4.347099165291e-02       1.559912669966e+04 
       4.385601636264e-02       1.548342747256e+04 
       4.425858610119e-02       1.536634311894e+04 
       4.468054561138e-02       1.524774793498e+04 
       4.512401934694e-02       1.512738406814e+04 
       4.559146614893e-02       1.500500425849e+04 
       4.608574657885e-02       1.488033481473e+04 
       4.661020606377e-02       1.475303922030e+04 
       4.716877769811e-02       1.462266680618e+04 
