# Matter power spectrum P(k) at redshift z=0
# for k=9.0192e-06 to 20.5861 h/Mpc,
# number of wavenumbers equal to 855
#    1:k (h/Mpc)              2:P (Mpc/h)^3        
       9.019201454174e-06       7.364119679521e+01 
       2.013437232318e-05       1.597261875774e+02 
       3.127867019624e-05       2.442388723632e+02 
       4.247440903451e-05       3.280300776608e+02 
       5.374417827534e-05       4.115601377006e+02 
       6.511099296095e-05       4.951586310773e+02 
       7.659844748270e-05       5.790965293444e+02 
       8.823087449441e-05       6.636151647307e+02 
       1.000335105604e-04       7.489405875578e+02 
       1.120326701213e-04       8.352918175960e+02 
       1.242559293744e-04       9.228861836857e+02 
       1.367323216761e-04       1.011943169355e+03 
       1.494925460608e-04       1.102687396535e+03 
       1.625691904350e-04       1.195351166447e+03 
       1.759969709228e-04       1.290176711454e+03 
       1.898129886899e-04       1.387418318902e+03 
       2.040570053356e-04       1.487344358184e+03 
       2.187717375774e-04       1.590239300078e+03 
       2.340031714211e-04       1.696405714746e+03 
       2.498008952548e-04       1.806166284246e+03 
       2.662184502690e-04       1.919865789937e+03 
       2.833136952002e-04       2.037873092655e+03 
       3.011491805457e-04       2.160583027317e+03 
       3.197925249974e-04       2.288418180345e+03 
       3.393167837950e-04       2.421830451963e+03 
       3.598007949172e-04       2.561302309699e+03 
       3.813294844476e-04       2.707347582612e+03 
       4.039941070762e-04       2.860511630927e+03 
       4.278923916126e-04       3.021370666176e+03 
       4.531285548632e-04       3.190530047171e+03 
       4.798131407256e-04       3.368621097803e+03 
       5.080626356595e-04       3.556296400462e+03 
       5.379988079316e-04       3.754223010432e+03 
       5.697477177126e-04       3.963073470871e+03 
       6.034383500518e-04       4.183514299182e+03 
       6.392008349528e-04       4.416191885439e+03 
       6.771642399587e-04       4.661715844959e+03 
       7.174539518240e-04       4.920640053390e+03 
       7.601887045194e-04       5.193441985949e+03 
       8.054773583407e-04       5.480501320130e+03 
       8.534155840436e-04       5.782078751662e+03 
       9.040826490048e-04       6.098296863423e+03 
       9.575385302735e-04       6.429124275908e+03 
       1.013821583378e-03       6.774365133798e+03 
       1.072946970199e-03       7.133654311566e+03 
       1.134905993731e-03       7.506460747902e+03 
       1.199666408215e-03       7.892096223236e+03 
       1.237685953032e-03       8.116587059016e+03 
       1.267173681764e-03       8.289732593993e+03 
       1.337353100265e-03       8.698422919539e+03 
       1.410112530429e-03       9.117126489480e+03 
       1.485345616560e-03       9.544735725328e+03 
       1.562935173802e-03       9.980102767129e+03 
       1.642756557639e-03       1.042206500454e+04 
       1.724680827698e-03       1.086946775469e+04 
       1.808577573914e-03       1.132118399135e+04 
       1.894317325288e-03       1.177613029685e+04 
       1.981773508839e-03       1.223327903696e+04 
       2.070823964317e-03       1.269166587101e+04 
       2.161352047312e-03       1.315039566574e+04 
       2.253247369975e-03       1.360864451247e+04 
       2.346406236227e-03       1.406565957793e+04 
       2.440731829417e-03       1.452075843423e+04 
       2.536134206954e-03       1.497332578575e+04 
       2.632530150392e-03       1.542281073053e+04 
       2.729842912233e-03       1.586872239084e+04 
       2.828001893341e-03       1.631062380364e+04 
       2.926942277899e-03       1.674813172820e+04 
       3.026604646696e-03       1.718090784617e+04 
       3.126934584318e-03       1.760865912910e+04 
       3.227882291507e-03       1.803112976552e+04 
       3.329402210537e-03       1.844809927721e+04 
       3.431452668786e-03       1.885938194070e+04 
       3.533995543625e-03       1.926481724662e+04 
       3.636995950267e-03       1.966427428748e+04 
       3.740421953082e-03       2.005764157464e+04 
       3.844244300126e-03       2.044483159920e+04 
       3.948436180119e-03       2.082577481110e+04 
       4.052973000729e-03       2.120041577771e+04 
       4.157832186856e-03       2.156871559745e+04 
       4.262992997494e-03       2.193064905554e+04 
       4.368436359704e-03       2.228619769676e+04 
       4.474144718296e-03       2.263536029972e+04 
       4.580101899811e-03       2.297813712540e+04 
       4.686292989519e-03       2.331454278902e+04 
       4.792704220213e-03       2.364459667672e+04 
       4.899322871658e-03       2.396832435925e+04 
       5.006137179679e-03       2.428575742268e+04 
       5.113136253919e-03       2.459693123345e+04 
       5.220310003429e-03       2.490188795082e+04 
       5.327649069297e-03       2.520067075229e+04 
       5.435144763619e-03       2.549332871034e+04 
       5.542789014175e-03       2.577991107684e+04 
       5.650574314243e-03       2.606047370974e+04 
       5.758493677037e-03       2.633506728795e+04 
       5.866540594312e-03       2.660375195541e+04 
       5.974708998718e-03       2.686658612156e+04 
       6.082993229540e-03       2.712362504140e+04 
       6.191388001486e-03       2.737493652846e+04 
       6.299888376236e-03       2.762057034434e+04 
       6.408489736469e-03       2.786059636075e+04 
       6.517187762150e-03       2.809508147260e+04 
       6.625978408838e-03       2.832408050451e+04 
       6.734857887851e-03       2.854765970696e+04 
       6.843822648090e-03       2.876588040627e+04 
       6.952869359376e-03       2.897880640062e+04 
       7.061994897172e-03       2.918650892249e+04 
       7.171196328541e-03       2.938904021188e+04 
       7.280470899244e-03       2.958647345406e+04 
       7.389816021878e-03       2.977885863517e+04 
       7.499229264944e-03       2.996627123226e+04 
       7.608708342784e-03       3.014876746067e+04 
       7.718251106291e-03       3.032641126994e+04 
       7.827855534349e-03       3.049926508178e+04 
       7.937519725913e-03       3.066738358871e+04 
       8.047241892697e-03       3.083083255761e+04 
       8.157020352409e-03       3.098967270171e+04 
       8.266853522487e-03       3.114395082767e+04 
       8.376739914299e-03       3.129373885259e+04 
       8.486678127766e-03       3.143909560938e+04 
       8.596666846377e-03       3.158007406524e+04 
       8.706704832558e-03       3.171672967693e+04 
       8.816790923377e-03       3.184912413030e+04 
       8.926924026550e-03       3.197731237264e+04 
       9.037103116728e-03       3.210134345687e+04 
       9.147327232045e-03       3.222128207618e+04 
       9.257595470906e-03       3.233717571604e+04 
       9.367906988995e-03       3.244908182998e+04 
       9.478260996488e-03       3.255705207326e+04 
       9.588656755457e-03       3.266112569859e+04 
       9.699093577455e-03       3.276138826438e+04 
       9.809570821253e-03       3.285785708208e+04 
       9.920087890742e-03       3.295059558001e+04 
       1.003064423297e-02       3.303965190748e+04 
       1.014123933630e-02       3.312507652559e+04 
       1.025187272874e-02       3.320692672945e+04 
       1.036254397627e-02       3.328523880851e+04 
       1.047325268145e-02       3.336005973041e+04 
       1.058399848198e-02       3.343145664348e+04 
       1.069478104937e-02       3.349945499577e+04 
       1.080560008783e-02       3.356411043267e+04 
       1.091645533304e-02       3.362548328059e+04 
       1.102734655117e-02       3.368359309716e+04 
       1.113827353786e-02       3.373849488255e+04 
       1.124923611732e-02       3.379023220552e+04 
       1.136023414150e-02       3.383884735543e+04 
       1.147126748927e-02       3.388438620414e+04 
       1.158233606570e-02       3.392688755063e+04 
       1.169343980138e-02       3.396639550430e+04 
       1.180457865178e-02       3.400296026537e+04 
       1.191575259669e-02       3.403662367632e+04 
       1.202696163964e-02       3.406740684238e+04 
       1.213820580743e-02       3.409536854827e+04 
       1.224948514968e-02       3.412053858802e+04 
       1.236079973837e-02       3.414296830197e+04 
       1.237685953032e-02       3.414597644473e+04 
       1.247214966748e-02       3.416268928467e+04 
       1.258353505266e-02       3.417975129551e+04 
       1.269495603087e-02       3.419417280156e+04 
       1.280641276012e-02       3.420601227237e+04 
       1.291790541920e-02       3.421529008715e+04 
       1.302943420746e-02       3.422206185731e+04 
       1.314099934461e-02       3.422635600985e+04 
       1.325260107051e-02       3.422819851405e+04 
       1.336423964509e-02       3.422763826945e+04 
       1.347591534813e-02       3.422471024897e+04 
       1.358762847924e-02       3.421944856082e+04 
       1.369937935772e-02       3.421188334414e+04 
       1.381116832253e-02       3.420206577331e+04 
       1.392299573225e-02       3.419000321785e+04 
       1.403486196504e-02       3.417574927995e+04 
       1.414676741865e-02       3.415933231509e+04 
       1.425871251047e-02       3.414082124298e+04 
       1.437069767751e-02       3.412017224474e+04 
       1.448272337650e-02       3.409747088573e+04 
       1.459479008397e-02       3.407274842291e+04 
       1.470689829629e-02       3.404602459627e+04 
       1.481904852984e-02       3.401732370318e+04 
       1.493124132110e-02       3.398671632703e+04 
       1.504347722680e-02       3.395418674481e+04 
       1.515575682410e-02       3.391981105318e+04 
       1.526808071071e-02       3.388358202578e+04 
       1.538044950514e-02       3.384554482871e+04 
       1.549286384690e-02       3.380572026242e+04 
       1.560532439667e-02       3.376414247759e+04 
       1.571783183662e-02       3.372084069624e+04 
       1.583038687058e-02       3.367587562678e+04 
       1.594299022439e-02       3.362922426937e+04 
       1.605564264613e-02       3.358098503349e+04 
       1.616834490645e-02       3.353109329262e+04 
       1.628109779887e-02       3.347962477440e+04 
       1.639390214014e-02       3.342661253992e+04 
       1.650675877056e-02       3.337211799019e+04 
       1.661966855437e-02       3.331609101826e+04 
       1.673263238013e-02       3.325861560645e+04 
       1.684565116109e-02       3.319971099270e+04 
       1.695872583566e-02       3.313940593364e+04 
       1.707185736779e-02       3.307768123900e+04 
       1.718504674747e-02       3.301461782327e+04 
       1.729829499114e-02       3.295016329786e+04 
       1.741160314223e-02       3.288449363550e+04 
       1.752497227163e-02       3.281749358838e+04 
       1.763840347825e-02       3.274925781882e+04 
       1.775189788949e-02       3.267976630759e+04 
       1.786545666187e-02       3.260906541232e+04 
       1.797908098160e-02       3.253719969569e+04 
       1.809277206515e-02       3.246419188579e+04 
       1.820653115987e-02       3.238998392852e+04 
       1.832035954466e-02       3.231471427570e+04 
       1.843425853064e-02       3.223836538325e+04 
       1.854822946178e-02       3.216098187257e+04 
       1.866227371567e-02       3.208249839926e+04 
       1.877639270420e-02       3.200298110640e+04 
       1.889058787436e-02       3.192257838059e+04 
       1.900486070897e-02       3.184105456226e+04 
       1.911921272753e-02       3.175868675236e+04 
       1.923364548703e-02       3.167530127581e+04 
       1.934816058281e-02       3.159106153657e+04 
       1.946275964942e-02       3.150596143510e+04 
       1.957744436158e-02       3.141997002884e+04 
       1.969221643508e-02       3.133317067275e+04 
       1.980707762778e-02       3.124549559985e+04 
       1.992202974060e-02       3.115698772860e+04 
       2.003707461854e-02       3.106778311904e+04 
       2.015221415178e-02       3.097776320426e+04 
       2.026745027677e-02       3.088703707876e+04 
       2.038278497735e-02       3.079550741394e+04 
       2.049822028594e-02       3.070336290021e+04 
       2.061375828477e-02       3.061046617747e+04 
       2.072940110709e-02       3.051690665151e+04 
       2.084515093849e-02       3.042276021007e+04 
       2.096101001822e-02       3.032797593962e+04 
       2.107698064060e-02       3.023254205609e+04 
       2.119306515638e-02       3.013655285306e+04 
       2.130926597426e-02       3.003991539171e+04 
       2.142558556241e-02       2.994275946459e+04 
       2.154202644997e-02       2.984514316512e+04 
       2.165859122876e-02       2.974690844308e+04 
       2.177528255490e-02       2.964820738730e+04 
       2.189210315054e-02       2.954901118714e+04 
       2.200905580565e-02       2.944932998880e+04 
       2.212614337989e-02       2.934916523030e+04 
       2.224336880449e-02       2.924864094385e+04 
       2.236073508425e-02       2.914762367963e+04 
       2.247824529957e-02       2.904624212289e+04 
       2.259590260856e-02       2.894441319661e+04 
       2.271371024925e-02       2.884221655603e+04 
       2.283167154183e-02       2.873964017944e+04 
       2.294978989100e-02       2.863679643856e+04 
       2.306806878841e-02       2.853354057907e+04 
       2.318651181515e-02       2.843006146067e+04 
       2.330512264439e-02       2.832614398291e+04 
       2.342390504404e-02       2.822206108576e+04 
       2.354286287957e-02       2.811758088994e+04 
       2.366200011688e-02       2.801292550856e+04 
       2.378132082533e-02       2.790790458646e+04 
       2.390082918088e-02       2.780277947611e+04 
       2.402052946923e-02       2.769730295495e+04 
       2.414042608930e-02       2.759170771648e+04 
       2.426052355659e-02       2.748593041353e+04 
       2.438082650687e-02       2.737991833351e+04 
       2.450133969992e-02       2.727368753352e+04 
       2.462206802339e-02       2.716724244155e+04 
       2.474301649691e-02       2.706077853454e+04 
       2.486419027623e-02       2.695409193050e+04 
       2.498559465764e-02       2.684735999631e+04 
       2.510723508253e-02       2.674042286428e+04 
       2.522911714207e-02       2.663340509323e+04 
       2.535124658217e-02       2.652629836558e+04 
       2.547362930863e-02       2.641904448240e+04 
       2.559627139240e-02       2.631174025001e+04 
       2.571917907523e-02       2.620440320545e+04 
       2.584235877539e-02       2.609694714536e+04 
       2.596581709374e-02       2.598948120433e+04 
       2.608956082001e-02       2.588188397104e+04 
       2.621359693938e-02       2.577437228727e+04 
       2.633793263930e-02       2.566685606553e+04 
       2.646257531666e-02       2.555918883636e+04 
       2.658753258525e-02       2.545161651090e+04 
       2.671281228353e-02       2.534404035323e+04 
       2.683842248280e-02       2.523645950570e+04 
       2.696437149571e-02       2.512882110788e+04 
       2.709066788513e-02       2.502125455026e+04 
       2.721732047350e-02       2.491375845505e+04 
       2.734433835256e-02       2.480622143255e+04 
       2.747173089352e-02       2.469874600220e+04 
       2.759950775781e-02       2.459143703610e+04 
       2.772767890822e-02       2.448407158064e+04 
       2.785625462066e-02       2.437683800032e+04 
       2.798524549648e-02       2.426969936311e+04 
       2.811466247535e-02       2.416253381453e+04 
       2.824451684888e-02       2.405560635330e+04 
       2.837482027479e-02       2.394857759234e+04 
       2.850558479194e-02       2.384168400404e+04 
       2.863682283602e-02       2.373491962513e+04 
       2.876854725609e-02       2.362829839796e+04 
       2.890077133202e-02       2.352178339245e+04 
       2.903350879283e-02       2.341531535812e+04 
       2.916677383594e-02       2.330898871803e+04 
       2.930058114758e-02       2.320279793686e+04 
       2.943494592425e-02       2.309673571540e+04 
       2.956988389536e-02       2.299082390941e+04 
       2.970541134711e-02       2.288495767819e+04 
       2.984154514783e-02       2.277928468030e+04 
       2.997830277459e-02       2.267376168698e+04 
       3.011570234153e-02       2.256836498232e+04 
       3.025376262967e-02       2.246305910154e+04 
       3.039250311863e-02       2.235790488831e+04 
       3.053194402011e-02       2.225294158481e+04 
       3.067210631353e-02       2.214811170249e+04 
       3.081301178370e-02       2.204346611348e+04 
       3.095468306095e-02       2.193886601234e+04 
       3.109714366369e-02       2.183456885607e+04 
       3.124041804370e-02       2.173028311111e+04 
       3.138453163433e-02       2.162623182868e+04 
       3.152951090180e-02       2.152229594994e+04 
       3.167538339992e-02       2.141849339055e+04 
       3.182217782843e-02       2.131490406306e+04 
       3.196992409528e-02       2.121141149827e+04 
       3.211865338317e-02       2.110811285941e+04 
       3.226839822072e-02       2.100498166328e+04 
       3.241919255863e-02       2.090192495702e+04 
       3.257107185125e-02       2.079908247338e+04 
       3.272407314408e-02       2.069631665584e+04 
       3.287823516760e-02       2.059381981072e+04 
       3.303359843821e-02       2.049139133577e+04 
       3.319020536659e-02       2.038908922046e+04 
       3.334810037451e-02       2.028687700185e+04 
       3.350733002060e-02       2.018486533368e+04 
       3.366794313606e-02       2.008292070846e+04 
       3.382999097124e-02       1.998110828883e+04 
       3.399352735407e-02       1.987946407911e+04 
       3.415860886157e-02       1.977792234764e+04 
       3.432529500575e-02       1.967644190746e+04 
       3.449364843534e-02       1.957514689888e+04 
       3.466373515488e-02       1.947389130432e+04 
       3.483562476319e-02       1.937271149941e+04 
       3.500939071309e-02       1.927159425377e+04 
       3.518511059478e-02       1.917060989902e+04 
       3.536286644542e-02       1.906963950796e+04 
       3.554274508785e-02       1.896874029465e+04 
       3.572483850181e-02       1.886799082003e+04 
       3.590924423139e-02       1.876715247560e+04 
       3.609606583291e-02       1.866636809066e+04 
       3.628541336829e-02       1.856556796006e+04 
       3.647740394922e-02       1.846482667106e+04 
       3.667216233868e-02       1.836409147845e+04 
       3.686982161695e-02       1.826331801499e+04 
       3.707052392060e-02       1.816245555968e+04 
       3.727442126399e-02       1.806161800861e+04 
       3.748167645451e-02       1.796064479346e+04 
       3.769246411437e-02       1.785960710683e+04 
       3.790697182412e-02       1.775843111677e+04 
       3.812540140511e-02       1.765714724825e+04 
       3.834797036152e-02       1.755570971762e+04 
       3.857491350587e-02       1.745415373083e+04 
       3.880648479604e-02       1.735228641734e+04 
       3.904295941716e-02       1.725028040349e+04 
       3.928463614761e-02       1.714796585088e+04 
       3.953184005601e-02       1.704541352594e+04 
       3.978492558473e-02       1.694246914603e+04 
       4.004428008681e-02       1.683918970118e+04 
       4.031032789653e-02       1.673552469132e+04 
       4.058353503013e-02       1.663145533820e+04 
       4.086441463424e-02       1.652681605864e+04 
       4.115353332438e-02       1.642168104297e+04 
       4.145151858783e-02       1.631591719748e+04 
       4.175906746475e-02       1.620950474875e+04 
       4.207695677096e-02       1.610234922112e+04 
       4.240605518850e-02       1.599430820586e+04 
       4.274733762948e-02       1.588535012013e+04 
       4.310190237925e-02       1.577542773927e+04 
       4.347099165291e-02       1.566433103380e+04 
       4.385601636264e-02       1.555198968109e+04 
       4.425858610119e-02       1.543822128558e+04 
       4.468054561138e-02       1.532284659829e+04 
       4.512401934694e-02       1.520564374530e+04 
       4.559146614893e-02       1.508631891601e+04 
       4.608574657885e-02       1.496476815515e+04 
       4.661020606377e-02       1.484034639403e+04 
       4.716877769811e-02       1.471273566047e+04 
