# dimensionless total [l(l+1)/2pi] C_l's
# for l=2 to 6000, i.e. number of multipoles equal to 5999
#
# -> if you prefer output in CAMB/HealPix/LensPix units/order, set 'format' to 'camb' in input file
# -> if you don't want to see such a header, set 'headers' to 'no' in input file
# -> for CMB lensing (phi), these are C_l^phi-phi for the lensing potential.
#    Remember the conversion factors:
#    C_l^dd (deflection) = l(l+1) C_l^phi-phi
#    C_l^gg (shear/convergence) = 1/4 (l(l+1))^2 C_l^phi-phi
#
# 1:l     2:TT                     3:EE                     4:TE                     5:BB                     6:phiphi                 7:TPhi                   8:Ephi               
    2       1.539140862448e-10       4.298424672338e-15       3.388548085764e-13       0.000000000000e+00       7.627597996052e-09       5.329503224302e-10      -1.843706577078e-12 
    3       1.425916801900e-10       5.316475087513e-15       3.858324317299e-13       0.000000000000e+00       4.739209087220e-09       3.738058772859e-10      -1.368500193629e-12 
    4       1.328930913942e-10       4.406984570042e-15       3.611064767729e-13       0.000000000000e+00       3.304331084581e-09       2.807228573024e-10      -8.638803227530e-13 
    5       1.257981979784e-10       2.813015326752e-15       3.062484449947e-13       0.000000000000e+00       2.468245151044e-09       2.204253527660e-10      -4.500249675848e-13 
    6       1.208980588227e-10       1.524019614803e-15       2.452609517252e-13       0.000000000000e+00       1.927753447203e-09       1.785113428079e-10      -1.560910735309e-13 
    7       1.176195105800e-10       8.327627391475e-16       1.917627566022e-13       0.000000000000e+00       1.553809777069e-09       1.479269246883e-10       2.073809858545e-14 
    8       1.155507823111e-10       5.633220989680e-16       1.514295379774e-13       0.000000000000e+00       1.282739334437e-09       1.248937853924e-10       1.006045038900e-13 
    9       1.144037805681e-10       4.587141304227e-16       1.251788574528e-13       0.000000000000e+00       1.079467106279e-09       1.071240040242e-10       1.116382344023e-13 
   10       1.138770287311e-10       3.831857947763e-16       1.113448740576e-13       0.000000000000e+00       9.226454178887e-10       9.305586732884e-11       8.311831641629e-14 
   11       1.138564064289e-10       3.182834078664e-16       1.070352456094e-13       0.000000000000e+00       7.810780549543e-10       8.196173799917e-11       4.070395491990e-14 
   12       1.142349301502e-10       2.816219636555e-16       1.090746809619e-13       0.000000000000e+00       6.823961239403e-10       7.241669355497e-11       1.518385408159e-15 
   13       1.148790489779e-10       2.761034371162e-16       1.147910329838e-13       0.000000000000e+00       6.013765929950e-10       6.456309029820e-11      -2.440497258110e-14 
   14       1.158045480113e-10       2.900367150897e-16       1.222838505237e-13       0.000000000000e+00       5.339547957080e-10       5.780459633626e-11      -3.496905514708e-14 
   15       1.168837068649e-10       3.151277240516e-16       1.303686743666e-13       0.000000000000e+00       4.771987464810e-10       5.207095912714e-11      -3.271489964554e-14 
   16       1.181524488300e-10       3.533089728321e-16       1.385570521530e-13       0.000000000000e+00       4.289401808895e-10       4.713904826044e-11      -2.310379021593e-14 
   17       1.195567736922e-10       4.103556461112e-16       1.468121914067e-13       0.000000000000e+00       3.875409252092e-10       4.289371529925e-11      -1.181101578306e-14 
   18       1.210655772711e-10       4.886815036873e-16       1.553948787984e-13       0.000000000000e+00       3.516091751891e-10       3.918346434202e-11      -3.291362468139e-15 
   19       1.226949873096e-10       5.873104328944e-16       1.644971053940e-13       0.000000000000e+00       3.205721592111e-10       3.593815958273e-11       8.425561814782e-16 
   20       1.244108271767e-10       7.038358179733e-16       1.742118141337e-13       0.000000000000e+00       2.932376749664e-10       3.304338709683e-11       2.252960562345e-16 
   21       1.262114755112e-10       8.383221886088e-16       1.843914763766e-13       0.000000000000e+00       2.691766887296e-10       3.048097651972e-11      -3.739935614164e-15 
   22       1.280745251514e-10       9.912958536645e-16       1.947267077459e-13       0.000000000000e+00       2.478129077420e-10       2.821794343566e-11      -8.695886023268e-15 
   23       1.300059024918e-10       1.162496252586e-15       2.048404290021e-13       0.000000000000e+00       2.288527522367e-10       2.620123653053e-11      -1.298378244238e-14 
   24       1.319977186066e-10       1.351458049864e-15       2.143020622380e-13       0.000000000000e+00       2.118584099241e-10       2.435119402683e-11      -1.519985457860e-14 
   25       1.340461929779e-10       1.559305819458e-15       2.228501381096e-13       0.000000000000e+00       1.966298715399e-10       2.266608743508e-11      -1.517742034544e-14 
   26       1.361353195390e-10       1.787789135939e-15       2.303023358799e-13       0.000000000000e+00       1.828912536346e-10       2.115151578829e-11      -1.334945647167e-14 
   27       1.382732004433e-10       2.038749808649e-15       2.366691564573e-13       0.000000000000e+00       1.704775438950e-10       1.979332099568e-11      -1.069030695067e-14 
   28       1.404641718023e-10       2.314041347729e-15       2.420401717262e-13       0.000000000000e+00       1.591745664873e-10       1.856163068849e-11      -8.364744238529e-15 
   29       1.427116551373e-10       2.614936165587e-15       2.464701012034e-13       0.000000000000e+00       1.489244692730e-10       1.744602831724e-11      -6.782085607272e-15 
   30       1.450044305896e-10       2.942494280083e-15       2.500271557091e-13       0.000000000000e+00       1.396170919992e-10       1.643014159409e-11      -6.137293955556e-15 
   31       1.473206124671e-10       3.297708127057e-15       2.527725777209e-13       0.000000000000e+00       1.310624768232e-10       1.548893470255e-11      -6.533547201120e-15 
   32       1.496645300938e-10       3.681481551566e-15       2.546153045358e-13       0.000000000000e+00       1.232162981580e-10       1.461833067417e-11      -7.623404828153e-15 
   33       1.520410318864e-10       4.094629551295e-15       2.554005651934e-13       0.000000000000e+00       1.160229085523e-10       1.381496727083e-11      -8.816488016922e-15 
   34       1.544482755274e-10       4.537937890537e-15       2.549630659401e-13       0.000000000000e+00       1.093814594696e-10       1.307068239566e-11      -9.511685410551e-15 
   35       1.568902865792e-10       5.012379219868e-15       2.531895233330e-13       0.000000000000e+00       1.032578050693e-10       1.238274831848e-11      -9.624454822341e-15 
   36       1.593670815516e-10       5.518966919171e-15       2.499763149678e-13       0.000000000000e+00       9.760266031829e-11       1.174623723652e-11      -9.242374112120e-15 
   37       1.618741608730e-10       6.058644948851e-15       2.452343250551e-13       0.000000000000e+00       9.234225621675e-11       1.115344076901e-11      -8.492959992181e-15 
   38       1.644152488489e-10       6.632111166458e-15       2.389639685583e-13       0.000000000000e+00       8.746291484669e-11       1.060284586894e-11      -7.556948475955e-15 
   39       1.669925700364e-10       7.239927844790e-15       2.312060795003e-13       0.000000000000e+00       8.294909205605e-11       1.009252354291e-11      -6.664512407255e-15 
   40       1.696026805809e-10       7.882561168680e-15       2.220234964994e-13       0.000000000000e+00       7.875765575142e-11       9.617372087378e-12      -6.095698434646e-15 
   41       1.722389353700e-10       8.560471418361e-15       2.114753715552e-13       0.000000000000e+00       7.483288820557e-11       9.170920872860e-12      -6.093817341926e-15 
   42       1.749012807390e-10       9.274433436417e-15       1.995269167195e-13       0.000000000000e+00       7.116314958697e-11       8.752112157305e-12      -6.564288131170e-15 
   43       1.775886516617e-10       1.002531025514e-14       1.861124622623e-13       0.000000000000e+00       6.773861126976e-11       8.360261894603e-12      -7.282951256020e-15 
   44       1.802958112585e-10       1.081396637111e-14       1.711593634688e-13       0.000000000000e+00       6.453425309178e-11       7.993039289589e-12      -7.974278008125e-15 
   45       1.830166633774e-10       1.164118173907e-14       1.545954369915e-13       0.000000000000e+00       6.151877759394e-11       7.647357807444e-12      -8.381510018182e-15 
   46       1.857562727827e-10       1.250736186866e-14       1.363752396770e-13       0.000000000000e+00       5.868737900349e-11       7.322680010066e-12      -8.509331468047e-15 
   47       1.885217877905e-10       1.341274194115e-14       1.164606941967e-13       0.000000000000e+00       5.603671485395e-11       7.018473960977e-12      -8.448513934365e-15 
   48       1.913188917690e-10       1.435746146224e-14       9.481367864398e-14       0.000000000000e+00       5.355502409526e-11       6.733202281640e-12      -8.310110303872e-15 
   49       1.941516333920e-10       1.534155979819e-14       7.139592744332e-14       0.000000000000e+00       5.122150139266e-11       6.464247828092e-12      -8.226595343617e-15 
   50       1.970221969835e-10       1.636504918740e-14       4.617171954960e-14       0.000000000000e+00       4.901255125075e-11       6.208701725900e-12      -8.318209492301e-15 
   51       1.999305338766e-10       1.742816749524e-14       1.911703315987e-14       0.000000000000e+00       4.692400333249e-11       5.966152076451e-12      -8.578574124592e-15 
   52       2.028743375725e-10       1.853118635046e-14      -9.787295339647e-15       0.000000000000e+00       4.495384567453e-11       5.736523740959e-12      -8.959999388870e-15 
   53       2.058489264310e-10       1.967433886742e-14      -4.055811016273e-14       0.000000000000e+00       4.309557711530e-11       5.519249199924e-12      -9.405082193326e-15 
   54       2.088470711036e-10       2.085781882802e-14      -7.320990404720e-14       0.000000000000e+00       4.133790535036e-11       5.313234811325e-12      -9.846209280703e-15 
   55       2.118616208132e-10       2.208173902589e-14      -1.077523084200e-13       0.000000000000e+00       3.966818229309e-11       5.117223913167e-12      -1.021994457764e-14 
   56       2.148945415368e-10       2.334599605500e-14      -1.441819072416e-13       0.000000000000e+00       3.808440126283e-11       4.931069060344e-12      -1.051551506399e-14 
   57       2.179498208375e-10       2.465037049876e-14      -1.824883333615e-13       0.000000000000e+00       3.658565127592e-11       4.754716737303e-12      -1.073749943075e-14 
   58       2.210308035988e-10       2.599456246830e-14      -2.226564422910e-13       0.000000000000e+00       3.516848792836e-11       4.587820321707e-12      -1.089208028431e-14 
   59       2.241401285037e-10       2.737818919331e-14      -2.646661835916e-13       0.000000000000e+00       3.382677706040e-11       4.429721804096e-12      -1.098712712810e-14 
   60       2.272796645145e-10       2.880078261295e-14      -3.084924722628e-13       0.000000000000e+00       3.255153842107e-11       4.279433507557e-12      -1.103227934404e-14 
   61       2.304507476364e-10       3.026179951254e-14      -3.541111840772e-13       0.000000000000e+00       3.133343339895e-11       4.135913851500e-12      -1.103721109856e-14 
   62       2.336550970101e-10       3.176066004260e-14      -4.015190050915e-13       0.000000000000e+00       3.017123441073e-11       3.999008329994e-12      -1.100578322498e-14 
   63       2.368939926640e-10       3.329671361015e-14      -4.507178296235e-13       0.000000000000e+00       2.906498778942e-11       3.868688268571e-12      -1.094071994663e-14 
   64       2.401679404514e-10       3.486922512466e-14      -5.017090938563e-13       0.000000000000e+00       2.801346646371e-11       3.744766644662e-12      -1.084533591409e-14 
   65       2.434766180587e-10       3.647737298700e-14      -5.544938415347e-13       0.000000000000e+00       2.701409751673e-11       3.626889137063e-12      -1.072356150053e-14 
   66       2.468188210121e-10       3.812024707839e-14      -6.090727896609e-13       0.000000000000e+00       2.606288974490e-11       3.514525175396e-12      -1.057996809713e-14 
   67       2.501924086852e-10       3.979684674936e-14      -6.654463941912e-13       0.000000000000e+00       2.515436121667e-11       3.406958989577e-12      -1.041979340844e-14 
   68       2.535952262610e-10       4.150613301451e-14      -7.236098405167e-13       0.000000000000e+00       2.428299969688e-11       3.303481393587e-12      -1.024832502198e-14 
   69       2.570282082395e-10       4.324720191317e-14      -7.835366893447e-13       0.000000000000e+00       2.344814947645e-11       3.204030269487e-12      -1.006884953183e-14 
   70       2.604928096771e-10       4.501914282484e-14      -8.451920198366e-13       0.000000000000e+00       2.264998915612e-11       3.108664379482e-12      -9.884331385867e-15 
   71       2.639900573605e-10       4.682098675794e-14      -9.085371486661e-13       0.000000000000e+00       2.188805375185e-11       3.017370366148e-12      -9.698026566547e-15 
   72       2.675205207754e-10       4.865170572515e-14      -9.735295659150e-13       0.000000000000e+00       2.116120145727e-11       2.930058935769e-12      -9.513491473893e-15 
   73       2.710842830735e-10       5.051021211868e-14      -1.040122870968e-12       0.000000000000e+00       2.046758040624e-11       2.846561041670e-12      -9.334591808440e-15 
   74       2.746809120408e-10       5.239535808557e-14      -1.108266708410e-12       0.000000000000e+00       1.980459543539e-11       2.766624067546e-12      -9.165511454205e-15 
   75       2.783094310652e-10       5.430593490298e-14      -1.177906703916e-12       0.000000000000e+00       1.916887484657e-11       2.689908010799e-12      -9.010761361638e-15 
   76       2.819688363901e-10       5.624066721231e-14      -1.248989204616e-12       0.000000000000e+00       1.855710515610e-11       2.616071090428e-12      -8.874085912548e-15 
   77       2.856598219458e-10       5.819819588863e-14      -1.321476639838e-12       0.000000000000e+00       1.796878455127e-11       2.545053030244e-12      -8.754932139899e-15 
   78       2.893833177654e-10       6.017709089790e-14      -1.395334858014e-12       0.000000000000e+00       1.740391348688e-11       2.476836739605e-12      -8.651349800404e-15 
   79       2.931399540604e-10       6.217585544279e-14      -1.470528604578e-12       0.000000000000e+00       1.686215605345e-11       2.411361520790e-12      -8.561023270638e-15 
   80       2.969300433907e-10       6.419292523245e-14      -1.547021556377e-12       0.000000000000e+00       1.634282453850e-11       2.348521086050e-12      -8.481257821965e-15 
   81       3.007535628348e-10       6.622666775247e-14      -1.624776356087e-12       0.000000000000e+00       1.584486398785e-11       2.288161574669e-12      -8.408965895482e-15 
   82       3.046101361593e-10       6.827538153470e-14      -1.703754646627e-12       0.000000000000e+00       1.536683676689e-11       2.230079570016e-12      -8.340653376942e-15 
   83       3.084990159888e-10       7.033729542717e-14      -1.783917105576e-12       0.000000000000e+00       1.490690712187e-11       2.174020116606e-12      -8.272405871700e-15 
   84       3.124194355694e-10       7.241060896995e-14      -1.865221346131e-12       0.000000000000e+00       1.446328593955e-11       2.119739764882e-12      -8.200789932783e-15 
   85       3.163717701178e-10       7.449362281297e-14      -1.947615144803e-12       0.000000000000e+00       1.403568356031e-11       2.067212057695e-12      -8.125758472062e-15 
   86       3.203565362035e-10       7.658462868059e-14      -2.031042148893e-12       0.000000000000e+00       1.362407062438e-11       2.016452631888e-12      -8.048204079938e-15 
   87       3.243740278262e-10       7.868187014921e-14      -2.115443908709e-12       0.000000000000e+00       1.322823169666e-11       1.967456342440e-12      -7.969088524824e-15 
   88       3.284243047972e-10       8.078354260795e-14      -2.200759876116e-12       0.000000000000e+00       1.284775756247e-11       1.920196372424e-12      -7.889444405445e-15 
   89       3.325071811213e-10       8.288779321944e-14      -2.286927403101e-12       0.000000000000e+00       1.248203752328e-11       1.874623342968e-12      -7.810376803132e-15 
   90       3.366222133776e-10       8.499272088049e-14      -2.373881740330e-12       0.000000000000e+00       1.213025169235e-11       1.830664423214e-12      -7.733064934126e-15 
   91       3.407686891015e-10       8.709637618288e-14      -2.461556035705e-12       0.000000000000e+00       1.179136329053e-11       1.788222440278e-12      -7.658763801869e-15 
   92       3.449456151662e-10       8.919676137404e-14      -2.549881332922e-12       0.000000000000e+00       1.146411094192e-11       1.747174989205e-12      -7.588805849309e-15 
   93       3.491520205498e-10       9.129187010190e-14      -2.638788196979e-12       0.000000000000e+00       1.114730705289e-11       1.707404454915e-12      -7.524269009617e-15 
   94       3.533879419612e-10       9.337981357247e-14      -2.728211873482e-12       0.000000000000e+00       1.084080101708e-11       1.668895176282e-12      -7.464920159936e-15 
   95       3.576535656609e-10       9.545871338205e-14      -2.818087906243e-12       0.000000000000e+00       1.054464730612e-11       1.631649317938e-12      -7.410115078543e-15 
   96       3.619489190782e-10       9.752666392380e-14      -2.908350600086e-12       0.000000000000e+00       1.025880883840e-11       1.595656800907e-12      -7.359114999940e-15 
   97       3.662738635088e-10       9.958173289460e-14      -2.998933041731e-12       0.000000000000e+00       9.983153476349e-12       1.560894836891e-12      -7.311083687859e-15 
   98       3.706280868114e-10       1.016219618019e-13      -3.089767120695e-12       0.000000000000e+00       9.717450523689e-12       1.527327462547e-12      -7.265084508262e-15 
   99       3.750110961048e-10       1.036453664705e-13      -3.180783550175e-12       0.000000000000e+00       9.461367222720e-12       1.494905073778e-12      -7.220077502349e-15 
  100       3.794222104652e-10       1.056499375495e-13      -3.271911887944e-12       0.000000000000e+00       9.214465251583e-12       1.463563960009e-12      -7.174916459561e-15 
  101       3.838605536231e-10       1.076336410190e-13      -3.363080557238e-12       0.000000000000e+00       8.976197221527e-12       1.433225838473e-12      -7.128345990585e-15 
  102       3.883250466600e-10       1.095944186971e-13      -3.454216867654e-12       0.000000000000e+00       8.745903174178e-12       1.403797388494e-12      -7.078998600353e-15 
  103       3.928144007061e-10       1.115301887466e-13      -3.545247036034e-12       0.000000000000e+00       8.522807078813e-12       1.375169785772e-12      -7.025391761053e-15 
  104       3.973273769099e-10       1.134388959875e-13      -3.636096713927e-12       0.000000000000e+00       8.306192248297e-12       1.347243978177e-12      -6.966284075104e-15 
  105       4.018636220741e-10       1.153186694828e-13      -3.726692606119e-12       0.000000000000e+00       8.095962118327e-12       1.320011404825e-12      -6.901804862699e-15 
  106       4.064229328125e-10       1.171676872842e-13      -3.816961110707e-12       0.000000000000e+00       7.892149043855e-12       1.293483363507e-12      -6.832472418673e-15 
  107       4.110049940446e-10       1.189841295690e-13      -3.906827858193e-12       0.000000000000e+00       7.694740626998e-12       1.267666062244e-12      -6.758849555425e-15 
